,0,1,2,3,4,5,6
14,2,-4748,6752,-5978,-523,-5884,1354
15,2,-4888,5944,-7081,-1588,-5865,1665
16,2,-3639,3063,-6794,-2257,-5875,1849
17,2,-768,1237,-5107,-2477,-5864,1873
18,2,1825,787,-3622,-2514,-5819,1812
19,2,3771,148,-2596,-2509,-5742,1855
20,2,5082,-291,-1700,-2534,-5669,1796
21,2,5505,-1004,-1472,-2508,-5583,1723
22,2,4566,-972,-1465,-2346,-5580,1510
23,2,3815,-462,-2057,-1824,-5627,1319
24,2,1957,1536,-2819,-990,-5731,1089
25,2,-937,3734,-3704,-103,-5874,936
26,2,-2644,4479,-4156,666,-6053,805
27,2,-3500,4453,-4016,1254,-6211,581
28,2,-3078,3699,-3765,1467,-6301,525
29,2,-2607,2036,-3512,1450,-6336,525
30,2,-2457,310,-3807,1389,-6358,486
31,2,-2303,-1281,-4019,1351,-6394,456
32,2,-2334,-885,-3829,1355,-6420,488
33,2,-2974,1304,-4317,1109,-6437,802
34,2,-4932,3975,-4982,389,-6495,1275
35,2,-6607,5612,-5743,-673,-6527,1910
36,2,-6236,4368,-6015,-1680,-6535,2351
37,2,-4610,1972,-5256,-2263,-6515,2566
38,2,-1341,677,-3666,-2486,-6480,2556
39,2,1459,-514,-2433,-2610,-6403,2476
40,2,3666,-1501,-1711,-2606,-6323,2458
41,2,4904,-2148,-1207,-2531,-6258,2347
42,2,5097,-2155,-1337,-2323,-6243,2168
43,2,4690,-1368,-1704,-1940,-6293,2010
44,2,3830,-344,-2073,-1353,-6401,1835
45,2,2192,2169,-2452,-531,-6537,1637
46,2,7,3674,-2885,272,-6674,1435
47,2,-1496,4274,-3413,914,-6810,1262
48,2,-1815,3808,-3364,1239,-6911,1076
49,2,-1723,2680,-3189,1372,-6974,1032
50,2,-1703,1592,-3125,1388,-7011,1033
51,2,-1733,1174,-3221,1279,-7035,1063
52,2,-2111,1473,-3369,987,-7053,1007
53,2,-3497,2314,-3417,535,-7048,1255
54,2,-4808,2977,-3673,-166,-7016,1664
55,2,-4561,3312,-3842,-1023,-6939,1917
56,2,-3472,3031,-3560,-1696,-6797,2198
57,2,-1717,1077,-3409,-2185,-6659,2508
58,2,514,-788,-2194,-2461,-6588,2551
59,2,4702,-1109,-944,-2481,-6471,2524
60,2,5766,-1498,-319,-2514,-6404,2504
61,2,6431,-1929,-18,-2466,-6335,2461
62,2,6464,-2641,-264,-2292,-6300,2341
63,2,5170,-1624,-732,-1841,-6348,2200
64,2,3219,-288,-1339,-1225,-6451,1965
65,2,962,1228,-2202,-498,-6574,1716
66,2,-1380,2522,-2882,290,-6755,1421
67,2,-3008,3761,-3169,1035,-6958,1069
68,2,-2774,3172,-3004,1290,-7056,1071
69,2,-2350,2124,-2684,1343,-7116,972
70,2,-2080,923,-2604,1326,-7145,950
71,2,-1981,-369,-2719,1281,-7165,958
72,2,-1894,-1412,-2970,1269,-7187,986
73,2,-1697,-853,-3091,1327,-7221,1088
74,2,-2317,882,-3298,1108,-7248,1350
75,2,-4107,2658,-3429,442,-7265,1725
76,2,-5719,3947,-3801,-494,-7204,2278
77,2,-4981,2959,-4530,-1409,-7080,2788
78,2,-3063,1116,-4186,-2055,-7008,3166
79,2,-773,1159,-3516,-2384,-6962,3260
80,2,1887,-508,-2193,-2548,-6907,3323
81,2,3902,-1024,-1314,-2485,-6823,3382
82,2,5341,-1434,-609,-2504,-6744,3335
83,2,6421,-1712,-252,-2490,-6668,3298
84,2,6934,-2352,101,-2464,-6604,3183
85,2,6153,-2151,-124,-2262,-6605,2963
86,2,5507,-1694,-764,-1885,-6707,2706
87,2,4010,-288,-974,-1191,-6869,2416
88,2,2024,2128,-1557,-322,-7022,2214
89,2,382,3142,-2010,447,-7178,1985
90,2,-1130,3466,-2264,1033,-7356,1640
91,2,-1383,3159,-2329,1326,-7475,1418
92,2,-1255,1897,-2201,1326,-7528,1327
93,2,-1281,395,-2219,1275,-7550,1287
94,2,-1304,-995,-2393,1229,-7562,1282
95,2,-1398,-1250,-2439,1202,-7568,1301
96,2,-2590,1466,-2834,528,-7488,1943
97,2,-3716,2976,-2986,-159,-7415,2465
98,2,-4410,4040,-3156,-1038,-7285,2982
99,2,-3250,2301,-3452,-1919,-7096,3472
100,2,-1313,-13,-2572,-2440,-6947,3728
101,2,1030,-1754,-1914,-2480,-6875,3893
102,2,3349,-2203,-954,-2466,-6822,3900
103,2,5153,-2114,-587,-2447,-6743,3866
104,2,6380,-2277,-182,-2478,-6671,3794
105,2,7012,-2831,81,-2493,-6614,3647
106,2,6504,-2265,-244,-2312,-6602,3487
107,2,6067,-2039,-520,-1902,-6657,3264
108,2,4573,-830,-1054,-1213,-6803,2857
109,2,1470,1248,-2082,-278,-7016,2453
110,2,-520,2763,-2802,497,-7224,2175
111,2,-1741,2979,-2834,1033,-7420,1839
112,2,-1727,2599,-2758,1396,-7524,1772
113,2,-1544,1580,-2619,1426,-7573,1721
114,2,-1447,581,-2577,1389,-7600,1714
115,2,-1508,-285,-2514,1290,-7615,1729
116,2,-1732,-532,-2620,1151,-7619,1769
117,2,-2289,560,-3061,863,-7612,2071
118,2,-3225,2317,-3659,321,-7601,2521
119,2,-3945,3591,-4748,-473,-7600,3125
120,2,-3507,3392,-4985,-1544,-7529,3482
121,2,-1820,1691,-4113,-2431,-7370,3621
122,2,3,-120,-3028,-2781,-7218,3769
123,2,2259,-1300,-2241,-2950,-7135,3729
124,2,4341,-2134,-1477,-2961,-7072,3690
125,2,5895,-2542,-797,-2944,-7010,3626
126,2,6639,-3105,-345,-2894,-6951,3557
127,2,6348,-2955,-504,-2660,-6927,3497
128,2,5954,-2569,-962,-2257,-7026,3273
129,2,4283,-1238,-1318,-1481,-7226,2881
130,2,1712,1650,-2141,-402,-7445,2598
131,2,-440,2916,-2677,426,-7663,2332
132,2,-1697,3128,-2968,1048,-7824,1996
133,2,-1693,2671,-2893,1373,-7921,1835
134,2,-1464,1558,-2756,1431,-7962,1827
135,2,-1386,86,-2653,1344,-7988,1765
136,2,-1335,-579,-2699,1272,-7999,1766
137,2,-1552,123,-2876,1072,-7989,2017
138,2,-2343,1504,-3082,615,-7968,2382
139,2,-3784,3443,-3981,-25,-7906,2967
140,2,-4697,4138,-4624,-982,-7821,3612
141,2,-3999,2494,-4491,-1984,-7671,4018
142,2,-1825,121,-3419,-2592,-7536,4214
143,2,954,-1104,-2304,-2760,-7450,4262
144,2,3465,-1694,-1371,-2670,-7362,4337
145,2,5345,-1700,-707,-2721,-7286,4246
146,2,6565,-2032,-482,-2751,-7210,4194
147,2,6874,-3058,-416,-2763,-7197,3989
148,2,5717,-2469,-684,-2297,-7315,3884
149,2,4552,-1373,-1339,-1606,-7513,3542
150,2,2294,980,-1921,-657,-7766,3204
151,2,244,2740,-2410,169,-7991,2910
152,2,-1775,2355,-2458,1351,-8393,2266
153,2,-1371,1355,-2361,1550,-8458,2267
154,2,-1120,249,-2274,1545,-8484,2212
155,2,-1056,-688,-2268,1451,-8491,2216
156,2,-1185,-1178,-2460,1404,-8474,2373
157,2,-1926,288,-2743,1249,-8430,2849
158,2,-3542,2154,-3049,532,-8330,3414
159,2,-4635,3316,-3450,-430,-8153,4118
160,2,-4406,2928,-3315,-1488,-7925,4646
161,2,-2624,548,-3209,-2336,-7687,4839
162,2,131,-1424,-2242,-2621,-7556,5023
163,2,2575,-2774,-1103,-2724,-7481,5020
164,2,4555,-3253,-459,-2723,-7408,4973
165,2,6145,-3463,-3,-2755,-7340,4896
166,2,7185,-3806,338,-2773,-7274,4838
167,2,7832,-4162,614,-2759,-7224,4760
168,2,7421,-4263,683,-2609,-7214,4665
169,2,6378,-3581,521,-2286,-7344,4367
170,2,4721,-2437,74,-1610,-7589,3986
171,2,2199,370,-509,-659,-7904,3475
172,2,-184,1709,-1232,319,-8210,3038
173,2,-1847,2922,-1184,1088,-8513,2512
174,2,-1661,2791,-1012,1640,-8662,2300
175,2,-1008,1844,-789,1756,-8704,2236
176,2,-701,162,-779,1689,-8701,2240
177,2,-570,-1605,-994,1601,-8699,2231
178,2,-420,-2643,-1323,1559,-8711,2196
179,2,-438,-2513,-1705,1539,-8742,2212
180,2,-695,-2677,-2045,1377,-8778,2292
181,2,-1059,-2762,-2320,1166,-8822,2439
182,2,-1252,-2848,-2487,1022,-8876,2601
183,2,-1274,-2932,-2559,892,-8940,2614
184,2,-1459,-2550,-2787,792,-9004,2529
185,2,-1487,-2409,-3079,702,-9059,2471
186,2,-1411,-2244,-3301,682,-9106,2436
187,2,-1343,-1901,-3563,707,-9151,2409
188,2,-1352,-1586,-3663,710,-9196,2383
189,2,-1145,-1245,-3961,741,-9275,2375
190,2,-1142,-1146,-4014,756,-9318,2380
191,2,-1101,-1197,-3954,742,-9360,2369
192,2,-1069,-1115,-4041,751,-9400,2357
193,2,-1041,-1112,-4083,769,-9440,2364
194,2,-1040,-1079,-4048,787,-9479,2366
195,2,-1023,-1057,-4068,800,-9516,2372
196,2,-985,-1046,-4054,821,-9558,2374
197,2,-972,-1001,-4036,842,-9595,2378
198,2,-939,-1006,-4031,852,-9633,2381
199,2,-927,-998,-4047,866,-9670,2383
200,2,-917,-1011,-4031,882,-9710,2384
201,2,-896,-990,-4004,905,-9747,2389
202,2,-877,-956,-3990,925,-9784,2394
203,2,-864,-948,-3975,939,-9820,2398
204,2,-835,-941,-3949,952,-9858,2398
205,2,-815,-920,-3932,958,-9896,2389
206,2,-818,-935,-3907,973,-9933,2388
207,2,-800,-940,-3892,997,-9970,2397
208,2,-771,-909,-3863,1013,-10004,2402
209,2,-760,-910,-3857,1025,-10040,2402
210,2,-745,-901,-3829,1041,-10077,2401
211,3,-3257,5552,-4444,-842,-10324,4526
212,3,-3150,3334,-4855,-2347,-10030,5424
213,3,-804,466,-3842,-3409,-9847,5710
214,3,2020,-861,-2618,-3350,-9758,5839
215,3,4574,-1715,-1044,-3484,-9700,5803
216,3,6444,-2182,-28,-3496,-9633,5701
217,3,7700,-2635,621,-3579,-9576,5548
218,3,8193,-3488,1012,-3636,-9569,5307
219,3,7666,-3977,743,-3237,-9677,4973
220,3,6032,-2958,101,-2321,-9932,4458
221,3,3140,-838,-540,-1176,-10213,3769
222,3,-72,1526,-1384,212,-10479,2863
223,3,-1977,3612,-1896,1229,-10703,1902
224,3,-1580,3322,-1782,1624,-10802,1571
225,3,-570,1093,-961,1752,-10848,1399
226,3,-319,269,-932,1694,-10830,1509
227,3,-514,533,-1175,1516,-10806,1804
228,3,-1667,1758,-1552,1085,-10752,2642
229,3,-3169,3206,-2063,176,-10628,3731
230,3,-4289,3705,-2541,-1109,-10402,4782
231,3,-3522,2340,-2454,-2284,-10100,5633
232,3,-1460,-46,-1640,-3038,-9821,6133
233,3,1473,-2204,-418,-3188,-9685,6327
234,3,4057,-3048,696,-3146,-9639,6239
235,3,5679,-3592,1009,-3206,-9644,5916
236,3,5824,-2957,1284,-2880,-9770,5463
237,3,5086,-2026,942,-2308,-9975,4902
238,3,3477,145,497,-1338,-10249,4205
239,3,1424,2007,-180,-318,-10500,3441
240,3,-799,3053,-575,483,-10761,2492
241,3,-1234,3436,-447,1031,-10949,1764
242,3,-679,2726,-106,1402,-10996,1704
243,3,-152,883,148,1355,-10971,1826
244,3,-489,1155,-145,1088,-10914,2178
245,3,-1639,1686,-659,512,-10818,2928
246,3,-2758,2628,-1225,-286,-10670,3863
247,3,-3630,3414,-1418,-1379,-10418,4952
248,3,-2763,2171,-1285,-2457,-10083,5846
249,3,-692,25,-740,-3103,-9792,6382
250,3,1871,-1140,268,-3213,-9613,6699
251,3,4361,-1723,1584,-2793,-9506,6908
252,3,6447,-1766,1608,-2895,-9419,6816
253,3,7985,-1803,1651,-2922,-9356,6751
254,3,8989,-1954,1720,-3018,-9299,6616
255,3,8955,-2543,1892,-3180,-9296,6324
256,3,7805,-2011,1723,-2807,-9440,5915
257,3,6666,-797,1109,-2165,-9651,5284
258,3,4997,1192,492,-1278,-9869,4575
259,3,3387,3494,-322,-326,-10022,4099
260,3,2544,3490,-987,248,-10139,3628
261,3,1183,3338,-898,751,-10280,3070
262,3,749,2782,-644,1134,-10347,2719
263,3,818,2107,-492,1286,-10362,2534
264,3,878,1957,-645,1249,-10350,2595
265,3,297,2118,-972,940,-10315,2972
266,3,-1017,2548,-1211,355,-10245,3692
267,3,-2097,2939,-1310,-437,-10108,4507
268,3,-2110,3182,-1463,-1287,-9901,5276
269,3,-1361,2889,-1403,-2184,-9629,5894
270,3,185,1426,-1004,-2841,-9339,6423
271,3,2267,-531,-189,-3235,-9134,6749
272,3,4361,-1829,956,-3323,-9026,6847
273,3,6308,-2035,1137,-3134,-8931,6877
274,3,7663,-2312,1486,-3231,-8863,6783
275,3,8645,-2493,1558,-3269,-8830,6607
276,3,9028,-2636,1625,-3213,-8836,6378
277,3,8664,-2437,1471,-2959,-8906,6078
278,3,7715,-1680,1144,-2514,-9052,5667
279,3,6462,-498,599,-1868,-9255,5232
280,3,4465,1301,90,-1087,-9507,4685
281,3,2205,2285,-335,-321,-9732,4162
282,3,659,2536,-959,433,-9918,3700
283,3,123,2057,-1130,868,-10061,3268
284,3,138,1541,-989,1097,-10138,3056
285,3,288,1110,-866,1112,-10155,3056
286,3,20,1147,-909,892,-10126,3265
287,3,-986,1456,-1214,422,-10036,3762
288,3,-2370,2090,-1735,-258,-9886,4471
289,3,-3284,2797,-2118,-1092,-9678,5255
290,3,-3127,3252,-2327,-2133,-9378,5985
291,3,-1599,1115,-2016,-3077,-9037,6550
292,3,411,-850,-952,-3491,-8824,6890
293,3,2868,-1918,29,-3714,-8720,6868
294,3,5064,-2658,503,-3774,-8638,6782
295,3,6827,-2942,883,-3758,-8576,6727
296,3,7942,-3334,1236,-3721,-8509,6697
297,3,8467,-3714,1280,-3618,-8494,6595
298,3,8184,-3763,1176,-3346,-8584,6369
299,3,5811,-935,624,-2148,-9072,5542
300,3,3536,896,267,-1299,-9354,5085
301,3,1514,1886,-361,-371,-9621,4685
302,3,-8,2112,-824,391,-9865,4240
303,3,-398,2107,-997,886,-10045,3822
304,3,-156,1328,-964,1058,-10101,3746
305,3,-34,573,-876,1053,-10104,3786
306,3,-250,185,-957,887,-10062,3992
307,3,-813,-132,-1148,569,-9996,4236
308,3,-1445,302,-1509,93,-9889,4659
309,3,-2306,1215,-1757,-656,-9719,5167
310,3,-2544,1693,-1866,-1494,-9459,5786
311,3,-1749,1319,-1474,-2466,-9148,6239
312,3,-22,485,-1092,-3079,-8858,6618
313,3,1977,-1325,-522,-3460,-8642,6874
314,3,4022,-2276,461,-3529,-8558,6871
315,3,5816,-2376,848,-3511,-8480,6825
316,3,7220,-2343,1183,-3521,-8415,6781
317,3,7950,-2643,1429,-3584,-8367,6670
318,3,7936,-2631,1378,-3486,-8371,6530
319,3,7445,-2532,1252,-3220,-8507,6223
320,3,6263,-1471,901,-2592,-8752,5837
321,3,4526,-28,504,-1849,-9046,5367
322,3,2746,1039,167,-1193,-9342,4919
323,3,797,1395,-241,-430,-9646,4472
324,3,-315,1494,-346,267,-9892,4057
325,3,-179,1002,-387,563,-9996,3871
326,3,74,93,-284,644,-10027,3850
327,3,96,-223,-209,672,-10007,3975
328,3,-374,-40,-350,527,-9930,4278
329,3,-1496,447,-632,49,-9786,4756
330,3,-2744,1244,-752,-673,-9568,5321
331,3,-3241,1607,-1101,-1491,-9265,5943
332,3,-2329,963,-1364,-2334,-8928,6462
333,3,-627,59,-877,-2939,-8636,6914
334,3,1502,-1937,295,-3400,-8406,7103
335,3,3903,-2465,619,-3562,-8273,7107
336,3,5682,-3052,1026,-3545,-8193,7126
337,3,7038,-3305,1255,-3583,-8149,6997
338,3,7672,-3793,1449,-3599,-8138,6845
339,3,7463,-3301,1466,-3412,-8201,6634
340,3,7242,-2602,1295,-3003,-8327,6404
341,3,6423,-1862,1136,-2485,-8553,5987
342,3,4632,-407,934,-1740,-8851,5490
343,3,2331,1582,293,-794,-9125,5113
344,3,1369,2144,-325,-125,-9318,4853
345,3,697,1663,-458,240,-9486,4451
346,3,313,1218,-551,637,-9621,4145
347,3,325,774,-444,854,-9691,3989
348,3,345,49,-419,819,-9684,4028
349,3,198,-519,-488,694,-9664,4082
350,3,-381,-100,-862,606,-9609,4412
351,3,-1693,742,-1358,61,-9479,4963
352,3,-2779,1717,-1602,-728,-9270,5642
353,3,-3681,2530,-1501,-1731,-8938,6348
354,3,-2431,690,-1449,-2654,-8551,6912
355,3,-277,-941,-924,-3158,-8289,7289
356,3,2006,-2288,52,-3419,-8142,7431
357,3,4210,-3023,680,-3515,-8065,7378
358,3,6120,-3205,945,-3484,-7999,7338
359,3,7463,-3386,1188,-3465,-7932,7293
360,3,8363,-3562,1399,-3444,-7885,7237
361,3,8532,-3682,1509,-3380,-7880,7091
362,3,7924,-3625,1317,-3145,-7984,6835
363,3,6828,-2726,989,-2621,-8220,6457
364,3,4814,-850,515,-1834,-8539,6007
365,3,2837,1089,9,-1012,-8871,5616
366,3,1058,1764,-867,-250,-9160,5187
367,3,-261,2066,-1140,471,-9437,4809
368,3,-230,1475,-994,715,-9584,4487
369,3,-106,485,-886,846,-9619,4490
370,3,-46,-641,-905,805,-9627,4481
371,3,-80,-1583,-1270,774,-9625,4572
372,3,-357,-2147,-1692,596,-9644,4676
373,3,-400,-2866,-1822,444,-9680,4792
374,3,-906,-3111,-2041,252,-9789,4795
375,3,-976,-3112,-2309,122,-9841,4729
376,3,-1016,-3237,-2474,-34,-9902,4582
377,3,-973,-2950,-2862,21,-9947,4577
378,3,-963,-2828,-3050,43,-9986,4576
379,3,-919,-2724,-3230,46,-10024,4566
380,3,-874,-2647,-3357,52,-10062,4557
381,3,-852,-2528,-3420,47,-10101,4539
382,3,-818,-2490,-3484,23,-10139,4509
383,3,-806,-2502,-3525,35,-10178,4496
384,3,-789,-2427,-3522,64,-10217,4497
385,3,-772,-2403,-3514,79,-10254,4493
386,3,-750,-2360,-3525,96,-10291,4486
387,3,-737,-2322,-3506,122,-10328,4485
388,3,-734,-2261,-3477,143,-10365,4479
389,3,-699,-2241,-3465,152,-10401,4469
390,3,-668,-2198,-3452,169,-10437,4462
391,3,-654,-2173,-3414,186,-10472,4454
392,3,-632,-2140,-3376,218,-10542,4440
393,3,-611,-2111,-3369,239,-10578,4433
394,3,-592,-2085,-3330,265,-10614,4424
395,3,-579,-2063,-3295,283,-10649,4416
396,3,-562,-2036,-3275,292,-10683,4408
397,3,-549,-2034,-3259,302,-10718,4398
398,3,-527,-2046,-3251,316,-10753,4385
399,3,-517,-1999,-3208,340,-10788,4379
400,4,-1122,3370,-2448,-261,-11496,5442
401,4,-2892,4985,-3453,-1722,-11047,6830
402,4,-2525,2368,-4157,-3691,-10528,7731
403,4,-267,-290,-2757,-4334,-10252,8187
404,4,2757,-1768,-1091,-4454,-10139,8236
405,4,5278,-2605,124,-4483,-10077,8155
406,4,7141,-3050,850,-4485,-10029,8044
407,4,8312,-3631,1416,-4408,-10000,7926
408,4,8099,-3678,1795,-4115,-10092,7657
409,4,7115,-3111,1303,-3437,-10340,7210
410,4,4636,-1444,951,-2322,-10778,6271
411,4,1134,1215,213,-811,-11205,5030
412,4,-1442,2746,-903,731,-11535,3834
413,4,-775,2333,-430,1522,-11741,2795
414,4,-126,1410,-175,1581,-11732,2752
415,4,239,507,47,1475,-11700,2901
416,4,31,649,101,1185,-11635,3276
417,4,-1178,1252,-132,406,-11509,3971
418,4,-3081,2351,-834,-532,-11267,5153
419,4,-4125,2866,-1549,-1836,-10909,6421
420,4,-3611,1512,-1061,-3263,-10510,7275
421,4,-1600,-223,-125,-4041,-10137,7759
422,4,799,-2275,623,-4657,-9934,7768
423,4,3530,-2958,1073,-4746,-9851,7672
424,4,5628,-3664,1768,-4703,-9812,7559
425,4,6947,-4022,2163,-4572,-9786,7442
426,4,7095,-4520,1928,-4264,-9848,7280
427,4,6212,-4050,1656,-3641,-10127,6846
428,4,4097,-2218,1086,-2505,-10513,6197
429,4,986,627,293,-1228,-10937,5283
430,4,-1535,1925,-267,-32,-11368,4175
431,4,-1165,1783,-231,1540,-11727,3145
432,4,-447,995,214,1653,-11749,3012
433,4,45,98,401,1552,-11718,3061
434,4,103,-452,86,1367,-11667,3271
435,4,-451,79,-333,1051,-11590,3866
436,4,-2210,1261,-960,183,-11420,4848
437,4,-4096,2065,-1468,-1109,-11129,6007
438,4,-4257,1992,-1429,-2396,-10750,6980
439,4,-2721,1081,-1031,-3420,-10351,7661
440,4,-706,-245,-377,-4022,-10017,8144
441,4,1917,-2789,756,-4715,-9866,8095
442,4,4369,-3223,1013,-4768,-9829,7871
443,4,6333,-3864,1635,-4798,-9774,7745
444,4,7780,-4255,2006,-4717,-9740,7669
445,4,8212,-4764,2255,-4551,-9744,7548
446,4,7584,-4495,2140,-4112,-9909,7245
447,4,6456,-3037,1711,-3313,-10182,6783
448,4,4360,-1254,1101,-2314,-10541,6023
449,4,1152,450,135,-1100,-10950,5028
450,4,-1432,2337,-225,196,-11325,3983
451,4,-1451,2454,-335,814,-11483,3290
452,4,-685,1916,-163,1155,-11533,3058
453,4,67,1101,128,1233,-11531,3008
454,4,448,23,303,1139,-11498,3066
455,4,559,-499,128,922,-11456,3254
456,4,-214,-48,26,517,-11367,3825
457,4,-1583,915,81,-200,-11180,4752
458,4,-2468,1907,-160,-1112,-10885,5773
459,4,-2383,2384,-477,-2156,-10504,6760
460,4,-873,1364,-72,-3093,-10126,7460
461,4,435,-227,620,-3858,-9816,7807
462,4,2697,-1442,1157,-4426,-9650,7800
463,4,4773,-2676,1602,-4547,-9516,7766
464,4,6481,-3865,1857,-4587,-9435,7690
465,4,7713,-4263,2223,-4480,-9419,7600
466,4,8198,-4935,2367,-4310,-9437,7460
467,4,7497,-5153,2318,-3821,-9621,7175
468,4,5665,-3739,1724,-3092,-9986,6589
469,4,3327,-2079,847,-2067,-10372,5982
470,4,149,27,105,-754,-10820,5134
471,4,-2167,1355,-467,570,-11226,4108
472,4,-2050,1703,-635,1279,-11395,3672
473,4,-1233,1781,-398,1672,-11473,3476
474,4,-426,1144,44,1671,-11470,3496
475,4,-228,752,229,1652,-11422,3724
476,4,-784,750,-189,1271,-11331,4203
477,4,-2396,1058,-768,554,-11172,5092
478,4,-3944,1590,-1245,-528,-10924,6085
479,4,-4040,1787,-1362,-1641,-10575,7054
480,4,-2773,1097,-1016,-2619,-10184,7807
481,4,-851,-264,-144,-3105,-9856,8396
482,4,1399,-1820,738,-3684,-9675,8515
483,4,3880,-2722,1367,-3857,-9574,8442
484,4,6004,-2653,1743,-3860,-9536,8360
485,4,7450,-2885,2175,-3802,-9476,8301
486,4,8201,-3381,2325,-3674,-9468,8185
487,4,8074,-3234,2288,-3327,-9561,7971
488,4,7016,-2442,2017,-2813,-9762,7544
489,4,5236,-970,1557,-2033,-10065,6914
490,4,3007,1189,694,-1101,-10408,6160
491,4,596,2022,76,-238,-10780,5306
492,4,-1231,2453,-156,692,-11118,4410
493,4,-709,2449,-189,1325,-11252,4009
494,4,36,1602,107,1461,-11269,4002
495,4,428,239,366,1400,-11245,4020
496,4,533,-1487,567,1284,-11217,4067
497,4,738,-2395,534,1228,-11207,4017
498,4,725,-1750,169,1093,-11183,4130
499,4,112,-735,-158,736,-11095,4686
500,4,-1382,1242,-491,88,-10910,5543
501,4,-3495,3295,-769,-1041,-10519,6805
502,4,-3530,2300,-1100,-2513,-10026,7746
503,4,-2032,272,-746,-3538,-9646,8203
504,4,405,-1420,31,-4061,-9450,8311
505,4,3111,-2712,773,-4255,-9371,8247
506,4,5329,-3398,1356,-4236,-9312,8180
507,4,6969,-3815,1911,-4220,-9265,8083
508,4,8009,-4260,2168,-4169,-9242,7963
509,4,8091,-4635,2178,-3886,-9299,7814
510,4,7322,-4186,1881,-3377,-9516,7473
511,4,5601,-2779,1371,-2485,-9870,7002
512,4,2863,-756,704,-1429,-10292,6319
513,4,-191,1036,-18,-217,-10729,5555
514,4,-1741,1978,-300,679,-11061,4800
515,4,-1402,1771,-330,1235,-11225,4389
516,4,-630,982,-167,1456,-11283,4228
517,4,-74,-114,42,1479,-11287,4182
518,4,177,-1510,110,1404,-11270,4196
519,4,297,-1589,80,1308,-11231,4316
520,4,-372,-512,-223,914,-11103,4876
521,4,-1675,690,-609,163,-10864,5743
522,4,-2909,1773,-1139,-833,-10535,6650
523,4,-3260,2411,-1418,-1816,-10151,7589
524,4,-2229,1268,-1022,-3068,-9734,8136
525,4,2087,-2685,663,-4225,-9205,8474
526,4,4274,-3605,1210,-4344,-9142,8385
527,4,6027,-4274,1704,-4334,-9106,8257
528,4,7272,-4724,1964,-4221,-9102,8112
529,4,7221,-4702,2011,-3905,-9177,7944
530,4,6719,-4075,1850,-3391,-9395,7582
531,4,5318,-2520,1499,-2625,-9793,6945
532,4,2404,-73,964,-1540,-10263,6212
533,4,-283,1329,139,-469,-10718,5447
534,4,-2116,1649,-1,514,-11134,4563
535,4,-1630,1673,156,1119,-11305,4145
536,4,-658,844,356,1345,-11346,4008
537,4,6,-330,402,1357,-11331,4024
538,4,362,-1678,306,1238,-11299,4086
539,4,371,-2533,121,1143,-11275,4175
540,4,133,-1572,143,866,-11206,4494
541,4,-1274,-47,-137,160,-10990,5291
542,4,-2974,1398,-488,-946,-10651,6202
543,4,-3677,2095,-719,-2364,-10217,6935
544,4,-2918,978,-756,-3607,-9773,7342
545,4,-1012,-1015,-302,-4225,-9443,7618
546,4,1502,-2633,333,-4496,-9259,7681
547,4,3790,-3722,1129,-4593,-9176,7652
548,4,5684,-4221,1731,-4559,-9120,7574
549,4,6981,-4520,2082,-4546,-9073,7463
550,4,7814,-4854,2268,-4468,-9052,7348
551,4,7444,-5210,2041,-4233,-9123,7170
552,4,6237,-4670,1524,-3616,-9398,6851
553,4,3876,-2822,803,-2439,-9833,6361
554,4,594,-282,26,-1079,-10316,5623
555,4,-1864,1847,-474,298,-10759,4824
556,4,-1890,2277,-690,1065,-11008,4209
557,4,-1089,1795,-612,1408,-11083,4042
558,4,-388,708,-392,1444,-11093,4019
559,4,-69,-788,-225,1335,-11079,4049
560,4,75,-2082,-176,1219,-11061,4089
561,4,157,-2464,-416,1130,-11042,4184
562,4,-194,-2803,-1087,735,-11029,4707
563,4,-415,-3001,-1120,517,-11072,4768
564,4,-501,-3110,-1216,114,-11128,4695
565,4,-553,-2841,-1464,-157,-11178,4580
566,4,-617,-2868,-1549,-300,-11225,4532
567,4,-546,-2565,-1899,-244,-11254,4501
568,4,-453,-2198,-2116,-176,-11289,4507
569,4,-411,-2014,-2246,-152,-11315,4517
570,4,-349,-1957,-2408,-178,-11343,4495
571,4,-347,-1856,-2483,-163,-11373,4490
572,4,-330,-1791,-2517,-146,-11402,4485
573,4,-304,-1725,-2557,-140,-11429,4481
574,4,-301,-1705,-2570,-127,-11456,4482
575,4,-267,-1639,-2571,-118,-11482,4475
576,4,-255,-1603,-2600,-140,-11511,4454
577,4,-236,-1580,-2573,-148,-11542,4433
578,4,-224,-1564,-2583,-137,-11569,4429
579,4,-212,-1542,-2572,-121,-11596,4423
580,4,-197,-1506,-2537,-89,-11651,4415
581,4,-185,-1507,-2541,-87,-11677,4409
582,4,-179,-1519,-2534,-77,-11704,4398
583,4,-175,-1499,-2513,-59,-11729,4397
584,4,-156,-1496,-2494,-44,-11753,4395
585,4,-152,-1465,-2461,-19,-11779,4393
586,4,-143,-1448,-2448,-8,-11804,4388
587,4,-145,-1426,-2426,3,-11829,4382
588,4,-131,-1422,-2412,6,-11853,4377
589,4,-128,-1404,-2400,17,-11879,4372
590,4,-121,-1393,-2383,21,-11903,4361
591,5,-2063,4545,-2364,-1378,-11842,6129
592,5,-3190,4073,-3984,-3445,-11269,7894
593,5,-2425,1232,-3306,-5076,-10807,8751
594,5,683,-1282,-1480,-5743,-10611,8932
595,5,3629,-2459,-257,-5824,-10590,8728
596,5,6004,-2991,787,-5745,-10540,8625
597,5,7680,-3428,1514,-5661,-10494,8524
598,5,8719,-3801,2079,-5508,-10493,8354
599,5,8479,-3990,2256,-5132,-10578,8090
600,5,6862,-2989,2346,-4333,-10841,7448
601,5,4340,-598,1398,-3241,-11194,6324
602,5,1182,1934,190,-1923,-11564,4908
603,5,-1360,3804,-852,-656,-11839,3529
604,5,-1729,4363,-627,-133,-12012,2379
605,5,-822,3563,-142,79,-12049,2042
606,5,-79,2192,257,125,-12031,2084
607,5,228,1449,285,-5,-11997,2339
608,5,-243,1449,-154,-416,-11929,3091
609,5,-1593,2531,-1017,-759,-11817,4493
610,5,-3049,3884,-1459,-1803,-11611,6087
611,5,-3345,3924,-1470,-3442,-11274,7454
612,5,-2541,2832,-948,-4910,-10886,8302
613,5,-577,392,-342,-5716,-10542,8744
614,5,2091,-1997,917,-6055,-10382,8821
615,5,4727,-2731,1376,-6032,-10362,8640
616,5,6767,-3066,2086,-5882,-10323,8516
617,5,7706,-3940,2120,-5375,-10455,8019
618,5,6643,-3039,1546,-4507,-10774,7447
619,5,4224,-1152,911,-3322,-11178,6619
620,5,864,1168,-221,-1768,-11617,5504
621,5,-1513,2831,-646,-830,-11991,4243
622,5,-1578,2792,-694,-148,-12170,3476
623,5,-875,2209,-598,383,-12242,3200
624,5,-224,1119,-316,476,-12260,3142
625,5,77,333,-233,357,-12244,3235
626,5,-186,283,-581,19,-12184,3844
627,5,-854,1032,-1146,-512,-12069,4863
628,5,-2219,2189,-1704,-1442,-11863,6101
629,5,-2779,3101,-2312,-2640,-11562,7359
630,5,-2440,3063,-2265,-4216,-11194,8304
631,5,-890,1680,-1760,-5503,-10800,8856
632,5,1480,-576,-520,-6108,-10555,9119
633,5,4047,-1799,591,-6267,-10469,9101
634,5,6362,-2174,1410,-6255,-10413,8960
635,5,7861,-2494,2025,-6193,-10351,8870
636,5,8991,-2691,2415,-6114,-10318,8751
637,5,9143,-3009,2602,-5957,-10320,8591
638,5,8405,-2847,2365,-5581,-10474,8250
639,5,7197,-1782,2076,-4880,-10773,7687
640,5,4651,275,1331,-3601,-11194,6782
641,5,1748,1795,-107,-2230,-11561,5729
642,5,-278,3169,-346,-1193,-11923,4634
643,5,-776,3064,-323,-464,-12151,3720
644,5,-247,2262,144,-155,-12199,3477
645,5,309,1312,309,-144,-12179,3469
646,5,437,793,222,-331,-12123,3763
647,5,-391,1139,-121,-862,-12005,4414
648,5,-1830,1698,-237,-1839,-11791,5408
649,5,-3207,2191,-414,-3028,-11459,6435
650,5,-3133,2506,-509,-4051,-11046,7386
651,5,-2183,2050,-373,-4955,-10578,8210
652,5,-184,-319,70,-5733,-10200,8666
653,5,2387,-2029,837,-6010,-10000,8860
654,5,6590,-3316,2144,-6085,-9849,8742
655,5,8053,-3555,2440,-6025,-9803,8632
656,5,8929,-3961,2629,-5914,-9771,8540
657,5,9026,-3828,2689,-5657,-9827,8366
658,5,8411,-3372,2533,-5265,-9974,8052
659,5,7223,-2316,2093,-4517,-10269,7508
660,5,4806,-180,1505,-3401,-10662,6698
661,5,1674,1417,803,-2328,-11063,5640
662,5,-710,2447,4,-1255,-11409,4681
663,5,-918,3186,41,-670,-11656,3881
664,5,-179,2636,431,-312,-11694,3813
665,5,194,994,683,-277,-11664,3875
666,5,461,-252,740,-388,-11629,3923
667,5,491,-122,306,-526,-11557,4249
668,5,-123,469,-165,-1002,-11442,4915
669,5,-1371,1423,-377,-1763,-11277,5743
670,5,-2483,2418,-587,-2702,-10996,6731
671,5,-2545,2329,-437,-3865,-10617,7615
672,5,899,-36,30,-5532,-9931,8429
673,5,3063,-1824,802,-5927,-9771,8529
674,5,5331,-2504,1559,-5956,-9698,8491
675,5,6961,-3026,2231,-5933,-9633,8416
676,5,8146,-3226,2427,-5870,-9578,8327
677,5,8800,-3761,2593,-5766,-9558,8229
678,5,7965,-3727,2409,-5253,-9653,8114
679,5,6756,-2638,2058,-4434,-9899,7801
680,5,4618,-1161,1255,-3533,-10261,7082
681,5,1859,1402,-7,-2212,-10633,6354
682,5,-529,2381,-891,-1007,-10975,5559
683,5,-1377,3021,-1287,-30,-11254,4816
684,5,-636,2633,-927,423,-11313,4694
685,5,-75,1372,-498,413,-11312,4653
686,5,272,425,-245,292,-11293,4675
687,5,281,104,-216,78,-11253,4828
688,5,-261,395,-503,-85,-11191,5202
689,5,-1856,1180,-1220,-650,-11047,6026
690,5,-3408,1791,-2076,-1822,-10793,7049
691,5,-3773,1644,-2136,-3569,-10446,7837
692,5,-583,-624,-69,-5353,-9696,8779
693,5,1792,-2931,1083,-5822,-9517,8790
694,5,4443,-2970,1498,-5795,-9467,8659
695,5,6233,-3406,2047,-5839,-9387,8563
696,5,7573,-3601,2323,-5810,-9347,8462
697,5,8405,-3987,2508,-5693,-9312,8383
698,5,8172,-4251,2379,-5384,-9381,8224
699,5,7079,-3535,2055,-4845,-9628,7843
700,5,5281,-1987,1579,-3922,-10005,7294
701,5,2392,376,832,-2698,-10440,6579
702,5,-464,1891,-45,-1468,-10844,5825
703,5,-1397,2495,-684,-509,-11148,5184
704,5,-851,2256,-461,-113,-11279,4886
705,5,-280,1355,-72,28,-11302,4801
706,5,54,103,48,-6,-11284,4808
707,5,265,-558,-43,-121,-11249,4923
708,5,-1218,1034,-1284,-985,-11032,6032
709,5,-3381,2913,-1405,-2016,-10723,7040
710,5,-4516,3368,-1716,-3387,-10248,8074
711,5,-3571,1666,-1716,-4565,-9807,8805
712,5,-1416,-551,-944,-5252,-9456,9223
713,5,1542,-2402,40,-5750,-9268,9274
714,5,3981,-3525,1043,-5825,-9210,9232
715,5,6181,-3912,1768,-5772,-9186,9088
716,5,7728,-4008,1972,-5727,-9138,8990
717,5,8769,-4346,2287,-5712,-9106,8887
718,5,8955,-5014,2433,-5545,-9129,8751
719,5,7904,-4686,2239,-5030,-9316,8503
720,5,6252,-3822,1668,-4309,-9671,7970
721,5,2953,-1880,688,-3137,-10163,7201
722,5,-140,1570,117,-2006,-10617,6345
723,5,-1377,2634,-616,-731,-10906,5856
724,5,-1472,3042,-1069,11,-11141,5229
725,5,-612,3008,-825,462,-11232,5035
726,5,110,208,-29,265,-11164,5246
727,5,40,-276,-115,6,-11100,5448
728,5,-198,18,-473,-398,-10980,5939
729,5,-897,987,-885,-1048,-10816,6580
730,5,-1888,2423,-1015,-2024,-10561,7364
731,5,-2337,3378,-922,-3393,-10140,8162
732,5,-1645,2019,-799,-4801,-9672,8686
733,5,-202,-18,-318,-5466,-9302,8987
734,5,1810,-1755,441,-5747,-9115,9069
735,5,4400,-2985,1276,-5739,-9020,9070
736,5,6270,-3499,1889,-5683,-8969,8987
737,5,7613,-3677,2261,-5638,-8921,8895
738,5,8456,-4039,2483,-5550,-8891,8800
739,5,8280,-4105,2262,-5290,-8938,8664
740,5,7984,-3476,1842,-4647,-9085,8556
741,5,6823,-2687,1227,-3844,-9374,8156
742,5,4879,84,47,-2732,-9760,7629
743,5,3162,2310,-956,-1731,-10109,7261
744,5,1305,2526,-1676,-604,-10553,6855
745,5,842,1673,-1704,-354,-10651,6805
746,5,508,612,-1777,-292,-10705,6796
747,5,193,-397,-1840,-371,-10735,6798
748,5,-9,-1187,-1996,-439,-10755,6818
749,5,-161,-1739,-2122,-509,-10777,6823
750,5,-280,-2099,-2223,-560,-10807,6811
751,5,-338,-2351,-2331,-583,-10837,6803
752,5,-366,-2431,-2456,-578,-10872,6791
753,5,-394,-2502,-2517,-574,-10905,6782
754,5,-401,-2585,-2525,-563,-10940,6761
755,5,-406,-2564,-2570,-532,-10974,6741
756,5,-401,-2555,-2535,-495,-11006,6747
757,5,-392,-2567,-2510,-476,-11036,6737
758,5,-388,-2543,-2517,-463,-11066,6731
759,5,-382,-2530,-2480,-451,-11096,6727
760,5,-385,-2517,-2472,-450,-11125,6719
761,5,-372,-2538,-2464,-436,-11155,6713
762,5,-351,-2460,-2421,-412,-11216,6692
763,5,-339,-2445,-2397,-401,-11248,6682
764,5,-331,-2434,-2410,-383,-11277,6675
765,5,-328,-2407,-2387,-352,-11308,6676
766,5,-296,-2366,-2355,-323,-11338,6676
767,5,-289,-2315,-2345,-310,-11365,6670
768,5,-281,-2309,-2336,-301,-11396,6663
769,5,-277,-2299,-2331,-286,-11426,6656
770,5,-271,-2285,-2327,-267,-11455,6650
771,5,-262,-2255,-2319,-240,-11485,6646
772,5,-250,-2223,-2310,-224,-11514,6641
773,6,-1406,3675,-2318,-2571,-11648,8380
774,6,-1800,2966,-741,-4579,-11128,8745
775,6,1258,910,-715,-5464,-10614,9148
776,6,2873,-544,25,-5461,-10274,9712
777,6,4427,-2143,744,-6177,-10155,9666
778,6,6578,-2994,1414,-6056,-10107,9564
779,6,8084,-3582,2099,-6005,-10076,9469
780,6,8764,-4189,2549,-5805,-10078,9340
781,6,8329,-4572,2569,-5468,-10232,9002
782,6,6684,-4204,2214,-4762,-10598,8393
783,6,3599,-1604,1283,-3391,-11143,7487
784,6,431,686,-365,-1799,-11676,6234
785,6,-1508,2621,-631,-297,-12105,4814
786,6,-1473,2568,-554,379,-12257,4245
787,6,-676,2166,-262,587,-12301,4022
788,6,26,992,292,442,-12294,3957
789,6,278,538,320,329,-12229,4227
790,6,-271,895,-220,-24,-12100,5063
791,6,-1478,1940,-806,-666,-11885,6256
792,6,-3183,3471,-1355,-1665,-11574,7590
793,6,-4183,3545,-1491,-3440,-11132,8650
794,6,-3220,1673,-1131,-5041,-10641,9240
795,6,-952,-327,-30,-5388,-10256,9745
796,6,2019,-2213,1007,-5943,-10087,9741
797,6,4501,-3232,1822,-5934,-10019,9652
798,6,6399,-3758,2297,-5942,-9988,9505
799,6,7565,-4338,2634,-5846,-9970,9389
800,6,7451,-4638,2624,-5493,-10094,9153
801,6,6299,-3963,2367,-4859,-10434,8663
802,6,4074,-1848,1769,-3627,-10909,7955
803,6,925,334,859,-2114,-11458,6885
804,6,-1511,2134,-107,-496,-12011,5415
805,6,-1159,3250,-476,251,-12224,4730
806,6,-450,2100,-11,652,-12288,4563
807,6,96,865,517,652,-12289,4451
808,6,478,-60,562,590,-12255,4484
809,6,453,52,211,339,-12172,4924
810,6,-420,956,-79,47,-12006,5907
811,6,-2208,2126,-672,-867,-11747,7037
812,6,-3805,2804,-1205,-2257,-11356,8208
813,6,-3318,2009,-1192,-3619,-10933,9074
814,6,-1878,1188,-414,-4586,-10541,9640
815,6,332,-698,362,-5368,-10194,9939
816,6,2947,-2454,1390,-5643,-10026,10039
817,6,5174,-3090,2324,-5758,-9966,9886
818,6,7065,-3424,2579,-5762,-9898,9746
819,6,8347,-3732,2882,-5702,-9865,9649
820,6,8684,-4417,3104,-5539,-9876,9492
821,6,8069,-4343,2830,-5054,-10080,9131
822,6,6275,-3070,2468,-4208,-10447,8550
823,6,3378,-852,1565,-3045,-10904,7710
824,6,542,691,342,-1679,-11412,6705
825,6,-1451,2637,-450,-471,-11850,5490
826,6,-1314,2330,-418,180,-12031,4950
827,6,-624,1728,-129,477,-12099,4713
828,6,26,595,300,478,-12100,4661
829,6,399,-874,464,389,-12082,4620
830,6,657,-1718,477,337,-12061,4662
831,6,589,-1029,86,173,-12006,4967
832,6,-465,115,-487,-339,-11869,5796
833,6,-2216,1169,-1070,-1326,-11620,6917
834,6,-3110,2017,-1670,-2540,-11265,8016
835,6,-2835,2007,-1723,-4071,-10879,8850
836,6,-1776,856,-801,-5400,-10486,9273
837,6,483,-834,152,-6006,-10171,9506
838,6,3152,-2384,1075,-6248,-10003,9532
839,6,5462,-3005,1593,-6274,-9910,9467
840,6,7221,-3430,2162,-6235,-9858,9370
841,6,8484,-3546,2539,-6174,-9824,9249
842,6,9397,-3473,2741,-6089,-9791,9146
843,6,9934,-3703,2981,-6029,-9751,9046
844,6,9068,-4475,2851,-5692,-9827,8878
845,6,6616,-4095,2107,-4872,-10204,8371
846,6,3353,-1608,927,-3519,-10738,7585
847,6,228,1625,65,-2137,-11278,6576
848,6,-1577,2802,-763,-1027,-11681,5677
849,6,-1312,2671,-693,-402,-11883,5118
850,6,-680,1359,-304,-186,-11956,4955
851,6,-144,301,356,-207,-11975,4836
852,6,184,-409,336,-284,-11927,4889
853,6,120,-323,-120,-478,-11844,5237
854,6,-913,405,-536,-888,-11686,6003
855,6,-2674,1840,-855,-1578,-11406,7097
856,6,-3929,2204,-1443,-2993,-11030,8048
857,6,-3730,1705,-1591,-4420,-10629,8726
858,6,-2105,630,-890,-5105,-10226,9414
859,6,450,-1701,137,-6027,-9954,9531
860,6,3142,-2586,1057,-6311,-9814,9534
861,6,5289,-3354,1977,-6398,-9735,9438
862,6,7018,-3489,2302,-6352,-9671,9343
863,6,8257,-3757,2724,-6305,-9623,9239
864,6,9107,-3996,2752,-6201,-9603,9110
865,6,9535,-4037,2992,-6064,-9620,8961
866,6,8669,-4347,2951,-5701,-9725,8734
867,6,6428,-3779,2581,-4991,-10095,8154
868,6,3358,-889,1439,-3814,-10544,7390
869,6,560,1263,232,-2682,-11016,6539
870,6,-1824,2342,-234,-1699,-11501,5555
871,6,-1886,2510,-223,-891,-11793,4822
872,6,-1022,1793,32,-429,-11885,4595
873,6,-247,663,315,-282,-11905,4539
874,6,200,-387,596,-338,-11873,4595
875,6,130,-637,166,-525,-11786,4921
876,6,-719,-40,-257,-962,-11618,5751
877,6,-1719,974,-619,-1858,-11349,6743
878,6,-2737,2092,-785,-3158,-11009,7633
879,6,-2819,2400,-838,-4520,-10600,8302
880,6,-1915,2092,-713,-5672,-10136,8829
881,6,-292,-414,108,-6314,-9730,9245
882,6,2123,-2704,1278,-6655,-9529,9275
883,6,4527,-3624,1682,-6681,-9458,9155
884,6,6493,-3954,2054,-6640,-9411,9054
885,6,7911,-4232,2399,-6561,-9357,8969
886,6,8988,-4354,2623,-6489,-9308,8886
887,6,9705,-4486,2763,-6445,-9268,8787
888,6,9852,-4643,2910,-6340,-9246,8665
889,6,9283,-4991,2941,-6102,-9348,8383
890,6,8239,-4121,2242,-5521,-9607,7924
891,6,6542,-1752,1701,-4882,-9971,7370
892,6,4356,-169,1578,-3886,-10390,6732
893,6,963,1496,944,-2754,-10826,5830
894,6,-325,2340,21,-1119,-11323,4621
895,6,226,1486,183,-1019,-11370,4425
896,6,502,89,406,-1093,-11349,4471
897,6,571,-1310,309,-1204,-11323,4528
898,6,615,-1903,-300,-1301,-11314,4687
899,6,349,-2323,-357,-1531,-11330,4888
900,6,5,-2722,-307,-1892,-11354,5024
901,6,-318,-2930,-248,-2309,-11368,5037
902,6,-382,-3026,-528,-2506,-11381,5153
903,6,-375,-2917,-959,-2642,-11410,5179
904,6,-376,-2650,-1200,-2691,-11443,5181
905,6,-365,-2446,-1361,-2688,-11468,5179
906,6,-330,-2170,-1594,-2631,-11489,5166
907,6,-256,-1899,-1888,-2600,-11515,5150
908,6,-219,-1730,-2050,-2597,-11542,5151
909,6,-203,-1619,-2089,-2607,-11567,5162
910,6,-181,-1562,-2140,-2629,-11590,5177
911,6,-165,-1514,-2179,-2642,-11612,5190
912,6,-151,-1479,-2217,-2653,-11636,5192
913,6,-137,-1436,-2246,-2654,-11659,5194
914,6,-105,-1401,-2240,-2656,-11684,5192
915,6,-111,-1358,-2202,-2641,-11708,5176
916,6,-104,-1325,-2245,-2633,-11730,5175
917,6,-88,-1310,-2254,-2640,-11754,5179
918,6,-92,-1296,-2242,-2656,-11779,5180
919,6,-76,-1292,-2209,-2670,-11801,5182
920,6,-74,-1281,-2200,-2679,-11823,5182
921,6,-57,-1261,-2198,-2681,-11845,5189
922,6,-47,-1245,-2184,-2680,-11869,5190
923,6,-47,-1229,-2165,-2686,-11889,5193
924,6,-46,-1188,-2136,-2693,-11909,5195
925,6,-27,-1184,-2147,-2706,-11929,5200
926,6,-14,-1180,-2137,-2719,-11951,5204
927,6,1,-1147,-2092,-2733,-11971,5212
928,6,-12,-1102,-2072,-2733,-11988,5223
929,6,9,-1097,-2086,-2716,-12004,5249
930,6,11,-1100,-2070,-2720,-12026,5260
