Unnamed: 0,0,1,2,3,4,5,6
0,0,2949,-2199,-2727,-2691,-5088,-3330
1,0,-30,-635,-2384,-1880,-5238,-3517
2,0,-3105,1619,-1743,-910,-5486,-3760
3,0,-3453,3027,-1809,-483,-5623,-3736
4,0,-3097,2744,-1659,-420,-5661,-3808
5,0,-2935,1496,-1909,-462,-5707,-3811
6,0,-2778,411,-2444,-501,-5732,-3856
7,0,-2659,-488,-2903,-538,-5764,-3907
8,0,-2601,-1019,-3121,-558,-5799,-3951
9,0,-2524,-1404,-3261,-572,-5835,-3997
10,0,-2492,-1621,-3290,-587,-5870,-4043
11,0,-2431,-1765,-3343,-608,-5901,-4087
12,0,-2379,-1838,-3407,-636,-5930,-4135
13,0,-2355,-1901,-3494,-670,-5963,-4175
14,0,-2270,-1525,-3444,-705,-6001,-4206
15,0,-2492,-237,-2996,-806,-6057,-4196
16,0,-3381,1100,-2325,-1151,-6108,-4173
17,0,-5197,2456,-1856,-1725,-6133,-3992
18,0,-6134,1885,-2962,-3473,-6001,-3325
19,0,-3363,-705,-3816,-3886,-5900,-3229
20,0,-62,-1659,-3079,-3926,-5866,-3232
21,0,2500,-1972,-2031,-3858,-5789,-3259
22,0,4357,-2168,-1423,-3796,-5686,-3283
23,0,5690,-2312,-1036,-3739,-5601,-3320
24,0,6303,-2578,-955,-3659,-5516,-3375
25,0,5607,-2794,-1034,-3473,-5509,-3481
26,0,4252,-2339,-1027,-3077,-5596,-3736
27,0,1734,-605,-951,-2416,-5749,-4040
28,0,-1569,1167,-835,-1555,-5864,-4305
29,0,-3200,3175,-635,-754,-6028,-4343
30,0,-2740,2701,-478,-686,-6082,-4379
31,0,-2565,1753,-595,-660,-6103,-4363
32,0,-2353,478,-1110,-693,-6104,-4393
33,0,-2177,-502,-1654,-731,-6110,-4438
34,0,-2015,-1106,-1962,-748,-6126,-4478
35,0,-1918,-1481,-2060,-772,-6146,-4536
36,0,-1793,-2013,-2156,-798,-6182,-4630
37,0,-1723,-2057,-2183,-813,-6200,-4675
38,0,-1694,-2220,-2231,-848,-6216,-4731
39,0,-1652,-2352,-2288,-872,-6235,-4775
40,0,-1633,-2404,-2314,-886,-6255,-4816
41,0,-1611,-2321,-2256,-907,-6275,-4858
42,0,-1615,-1283,-2056,-987,-6302,-4883
43,0,-2099,193,-1647,-1222,-6369,-4791
44,0,-3384,1436,-1242,-1718,-6458,-4574
45,0,-4952,2337,-901,-2444,-6528,-4264
46,0,-4856,2284,-632,-3176,-6508,-3875
47,0,-3230,708,-1311,-3742,-6406,-3602
48,0,-442,-959,-1654,-3983,-6334,-3532
49,0,2098,-1238,-1090,-3968,-6271,-3562
50,0,4120,-1325,-568,-3911,-6183,-3575
51,0,5454,-1571,-276,-3859,-6099,-3609
52,0,5613,-2021,-551,-3757,-6048,-3699
53,0,4482,-2054,-1087,-3473,-6100,-3919
54,0,2206,-1085,-632,-2862,-6233,-4223
55,0,-999,801,224,-2023,-6302,-4572
56,0,-3041,3049,145,-1219,-6370,-4731
57,0,-2480,3153,-30,-993,-6398,-4705
58,0,-2184,2332,-254,-944,-6412,-4682
59,0,-1950,1080,-478,-979,-6424,-4715
60,0,-1760,58,-837,-999,-6430,-4750
61,0,-1601,-656,-1080,-1015,-6441,-4787
62,0,-1515,-1107,-1206,-1023,-6454,-4823
63,0,-1430,-1398,-1270,-1030,-6468,-4860
64,0,-1361,-1631,-1327,-1040,-6482,-4893
65,0,-1316,-1827,-1375,-1051,-6494,-4924
66,0,-1310,-1925,-1443,-1066,-6508,-4962
67,0,-1271,-2031,-1439,-1081,-6523,-4997
68,0,-1268,-2044,-1429,-1098,-6537,-5034
69,0,-1236,-1876,-1474,-1116,-6551,-5069
70,0,-1209,-1111,-1365,-1179,-6585,-5091
71,0,-1715,615,-994,-1383,-6661,-5050
72,0,-3379,1745,-755,-1908,-6774,-4902
73,0,-6057,1957,-682,-3603,-6823,-4018
74,0,-3939,-186,-1909,-4202,-6699,-3764
75,0,-911,-1733,-2273,-4387,-6620,-3689
76,0,1865,-2074,-1594,-4350,-6561,-3727
77,0,4052,-2287,-910,-4277,-6475,-3758
78,0,5518,-2462,-510,-4209,-6386,-3797
79,0,6343,-2640,-369,-4136,-6306,-3858
80,0,6001,-2951,-784,-3997,-6283,-4000
81,0,4986,-2519,-811,-3653,-6367,-4237
82,0,2872,-1036,-223,-3043,-6476,-4539
83,0,-332,285,160,-2289,-6545,-4879
84,0,-2686,2835,342,-1473,-6634,-5122
85,0,-2314,3071,297,-1269,-6678,-5092
86,0,-2018,2218,30,-1210,-6688,-5064
87,0,-1800,827,-329,-1241,-6695,-5097
88,0,-1635,-50,-773,-1246,-6696,-5124
89,0,-1505,-680,-1080,-1272,-6708,-5161
90,0,-1410,-1238,-1240,-1290,-6722,-5201
91,0,-1325,-1546,-1298,-1304,-6732,-5247
92,0,-1279,-1737,-1347,-1317,-6741,-5285
93,0,-1252,-1895,-1444,-1328,-6748,-5317
94,0,-1214,-1980,-1477,-1346,-6759,-5349
95,0,-1182,-1994,-1525,-1361,-6771,-5381
96,0,-1160,-1939,-1471,-1383,-6787,-5415
97,0,-1153,-1168,-1267,-1429,-6810,-5426
98,0,-1514,883,-1186,-1593,-6873,-5334
99,0,-3304,2335,-1117,-2127,-7032,-5171
100,0,-5279,2578,-588,-2970,-7176,-4782
101,0,-5996,1817,-646,-3873,-7156,-4191
102,0,-3848,-441,-2055,-4468,-7047,-3879
103,0,-345,-1916,-2417,-4667,-7003,-3866
104,0,2415,-2007,-1539,-4613,-6944,-3919
105,0,4475,-2184,-858,-4538,-6855,-3950
106,0,5597,-2506,-758,-4447,-6769,-4006
107,0,5264,-2909,-1343,-4222,-6784,-4187
108,0,3546,-2134,-1173,-3731,-6899,-4490
109,0,322,-730,-243,-3021,-6964,-4929
110,0,-2709,1308,-257,-2098,-6973,-5252
111,0,-3009,3208,-554,-1484,-6981,-5223
112,0,-2500,3092,-627,-1324,-6967,-5264
113,0,-2022,2031,-559,-1328,-6978,-5290
114,0,-1752,797,-631,-1355,-6981,-5315
115,0,-1461,-134,-832,-1368,-6980,-5342
116,0,-1278,-773,-925,-1385,-6984,-5378
117,0,-1150,-1182,-966,-1396,-6986,-5415
118,0,-1026,-1512,-1003,-1407,-6988,-5452
119,0,-949,-1753,-1026,-1416,-6992,-5487
120,0,-906,-1941,-1065,-1421,-6997,-5523
121,0,-857,-1967,-1034,-1427,-7003,-5559
122,0,-842,-2031,-1031,-1447,-7009,-5588
123,0,-785,-1844,-946,-1464,-7018,-5615
124,0,-922,-763,-776,-1521,-7044,-5589
125,0,-1501,818,-462,-1740,-7134,-5412
126,0,-3127,2279,-423,-2300,-7288,-5125
127,0,-5095,3117,-186,-3162,-7453,-4657
128,0,-5846,2026,-267,-4122,-7490,-4071
129,0,-3471,-907,-1360,-4672,-7381,-3721
130,0,-371,-2519,-1596,-4800,-7322,-3641
131,0,2413,-2692,-1002,-4764,-7245,-3691
132,0,4492,-2725,-452,-4693,-7152,-3730
133,0,5577,-3051,-417,-4619,-7073,-3796
134,0,5107,-3245,-898,-4443,-7094,-3981
135,0,3831,-2794,-477,-4078,-7220,-4329
136,0,1135,-1364,1025,-3398,-7288,-4785
137,0,-1895,662,1370,-2507,-7228,-5217
138,0,-3539,2756,1101,-1678,-7208,-5481
139,0,-2602,3377,1045,-1376,-7201,-5532
140,0,-1911,2288,1051,-1356,-7207,-5502
141,0,-1410,730,739,-1396,-7202,-5521
142,0,-998,-401,362,-1414,-7190,-5551
143,0,-715,-1016,230,-1420,-7181,-5603
144,0,-514,-1437,127,-1426,-7175,-5635
145,0,-359,-1776,67,-1431,-7168,-5676
146,0,-294,-2023,45,-1434,-7157,-5708
147,0,-203,-2187,-22,-1433,-7149,-5726
148,0,-132,-2358,-93,-1439,-7139,-5752
149,0,-101,-2466,-135,-1442,-7132,-5781
150,0,-58,-2386,-138,-1443,-7125,-5808
151,0,-53,-1801,-37,-1472,-7136,-5834
152,0,-304,-895,366,-1564,-7168,-5769
153,0,-1076,500,374,-1788,-7260,-5541
154,0,-2655,1474,157,-2311,-7410,-5271
155,0,-4547,1540,303,-3071,-7561,-4884
156,0,-5707,953,613,-3883,-7589,-4239
157,0,-3402,-1578,-591,-4469,-7461,-3769
158,0,175,-3075,-1283,-4631,-7377,-3684
159,0,2832,-2819,-596,-4585,-7318,-3724
160,0,4887,-2893,-113,-4522,-7227,-3759
161,0,6131,-2848,31,-4450,-7136,-3810
162,0,6028,-3111,-376,-4351,-7112,-3945
163,0,4957,-2929,-34,-4080,-7181,-4250
164,0,3093,-2306,826,-3554,-7235,-4775
165,0,-74,-889,1095,-2690,-7216,-5353
166,0,-2353,2573,1097,-1720,-7235,-5787
167,0,-1750,3198,1499,-1495,-7269,-5685
168,0,-1369,2455,1360,-1427,-7254,-5631
169,0,-994,1185,991,-1470,-7247,-5647
170,0,-751,245,659,-1503,-7242,-5673
171,0,-538,-492,474,-1527,-7239,-5724
172,0,-453,-922,400,-1523,-7230,-5756
173,0,-343,-1219,276,-1521,-7225,-5783
174,0,-285,-1413,233,-1520,-7220,-5810
175,0,-238,-1506,175,-1522,-7217,-5835
176,0,-217,-1554,87,-1549,-7222,-5867
177,0,-242,-1673,90,-1576,-7229,-5894
178,0,-228,-921,83,-1596,-7243,-5876
179,0,-532,364,130,-1749,-7317,-5797
180,0,-1483,1474,283,-2114,-7458,-5613
181,0,-2934,1927,306,-2672,-7620,-5342
182,0,-4327,2132,749,-3383,-7745,-4931
183,0,-4705,1749,861,-4182,-7762,-4310
184,0,-2468,-932,-613,-4758,-7651,-3905
185,0,579,-2383,-1088,-4884,-7555,-3851
186,0,3216,-2583,-671,-4822,-7486,-3898
187,0,5112,-2711,-89,-4741,-7397,-3935
188,0,5998,-2958,-144,-4649,-7322,-4001
189,0,5552,-3227,-523,-4489,-7341,-4213
190,0,4067,-2617,-648,-4116,-7466,-4627
191,0,1178,-1214,867,-3452,-7562,-5128
192,0,-2023,785,995,-2439,-7505,-5578
193,0,-2736,3033,493,-1701,-7506,-5706
194,0,-2011,3070,454,-1564,-7502,-5687
195,0,-1573,2004,399,-1601,-7517,-5666
196,0,-1244,794,332,-1655,-7521,-5683
197,0,-987,-31,132,-1695,-7515,-5713
198,0,-851,-568,-23,-1718,-7513,-5740
199,0,-688,-972,-165,-1740,-7514,-5769
200,0,-620,-1250,-126,-1753,-7516,-5801
201,0,-559,-1421,-157,-1756,-7512,-5823
202,0,-497,-1480,-229,-1759,-7511,-5839
203,0,-466,-1547,-271,-1766,-7515,-5856
204,0,-464,-1641,-233,-1775,-7521,-5869
205,0,-464,-1663,-248,-1775,-7520,-5884
206,0,-449,-1502,-370,-1783,-7525,-5904
207,0,-397,-1193,-845,-1844,-7560,-5949
208,0,-494,-816,-1325,-1959,-7665,-5966
209,0,-829,-738,-1397,-2230,-7834,-6060
210,0,-1093,-826,-1276,-2511,-7994,-6189
211,0,-1421,-937,-1328,-2811,-8113,-6373
212,0,-1490,-884,-1603,-2995,-8186,-6476
213,0,-1486,-787,-2028,-3106,-8228,-6557
214,0,-1471,-524,-2323,-3156,-8265,-6597
215,0,-1446,-136,-2515,-3203,-8304,-6622
216,0,-1445,68,-2637,-3272,-8341,-6657
217,0,-1389,237,-2776,-3323,-8376,-6675
218,0,-1381,420,-2856,-3360,-8407,-6692
219,0,-1370,549,-2912,-3396,-8441,-6705
220,0,-1349,656,-2944,-3429,-8472,-6718
221,0,-1334,747,-2940,-3460,-8502,-6733
222,0,-1315,799,-2934,-3491,-8532,-6745
223,0,-1292,837,-2937,-3524,-8564,-6756
224,0,-1282,884,-2920,-3555,-8592,-6772
225,0,-1270,925,-2887,-3592,-8622,-6788
226,0,-1244,953,-2902,-3629,-8651,-6804
227,0,-1225,958,-2883,-3660,-8680,-6820
228,0,-1210,982,-2850,-3685,-8708,-6829
229,0,-1191,998,-2840,-3716,-8738,-6843
230,0,-1180,999,-2808,-3745,-8766,-6858
231,0,-1164,1007,-2792,-3774,-8794,-6873
232,0,-1152,1006,-2790,-3805,-8822,-6889
233,0,-1138,1009,-2773,-3834,-8850,-6904
234,0,-1118,1002,-2760,-3863,-8876,-6917
235,0,-1103,1003,-2762,-3893,-8903,-6934
236,0,-1093,994,-2744,-3922,-8930,-6949
237,0,-1077,980,-2727,-3953,-8957,-6965
238,0,-1065,992,-2708,-3979,-8984,-6979
239,0,-1048,974,-2684,-4009,-9011,-6991
240,0,-1040,982,-2673,-4035,-9036,-7006
241,0,-1029,979,-2665,-4063,-9061,-7020
242,1,5346,-784,-108,-6151,-8890,-4740
243,1,7011,-1263,380,-6056,-8785,-4770
244,1,7570,-1835,384,-5973,-8716,-4867
245,1,6890,-2502,435,-5855,-8736,-5230
246,1,4885,-2106,723,-5539,-8816,-5869
247,1,1887,-756,1429,-4938,-8798,-6636
248,1,-1347,989,1944,-4152,-8677,-7476
249,1,-1442,4251,2814,-3627,-8665,-7523
250,1,-860,3369,2559,-3488,-8635,-7480
251,1,-451,1867,2251,-3484,-8623,-7480
252,1,-179,823,1851,-3466,-8602,-7476
253,1,18,-30,1578,-3465,-8587,-7485
254,1,149,-604,1418,-3448,-8570,-7494
255,1,242,-969,1294,-3433,-8550,-7504
256,1,330,-1125,1225,-3418,-8536,-7501
257,1,466,-438,1225,-3432,-8532,-7498
258,1,50,787,1485,-3587,-8612,-7372
259,1,-1337,1857,1986,-3980,-8773,-7025
260,1,-3331,2590,2399,-4603,-8974,-6287
261,1,-4171,2286,2389,-5328,-9091,-5407
262,1,-3004,412,1571,-5938,-9061,-4651
263,1,-609,-2126,268,-6198,-8957,-4305
264,1,2503,-2938,163,-6177,-8909,-4334
265,1,4892,-2851,681,-6082,-8826,-4397
266,1,6224,-3246,688,-5996,-8733,-4457
267,1,6050,-3523,414,-5882,-8729,-4698
268,1,4893,-3278,1033,-5659,-8807,-5198
269,1,2838,-2121,1807,-5078,-8789,-5991
270,1,44,667,2936,-4288,-8679,-6853
271,1,-1416,2695,3312,-3708,-8639,-7318
272,1,-856,2512,3229,-3536,-8619,-7280
273,1,-485,1668,2956,-3511,-8606,-7259
274,1,-135,610,2547,-3510,-8588,-7240
275,1,138,-41,2116,-3505,-8568,-7242
276,1,295,-609,1878,-3502,-8551,-7252
277,1,398,-937,1750,-3486,-8531,-7262
278,1,470,-1142,1652,-3466,-8510,-7272
279,1,531,-1275,1567,-3450,-8489,-7277
280,1,607,-1098,1455,-3438,-8476,-7264
281,1,728,175,1256,-3413,-8497,-7148
282,1,120,1056,1286,-3670,-8626,-7022
283,1,-1080,1693,1472,-4085,-8823,-6779
284,1,-2430,1847,1790,-4661,-9009,-6405
285,1,-3626,1670,2124,-5292,-9129,-5727
286,1,-3159,648,1578,-5934,-9124,-4878
287,1,-188,-1593,165,-6270,-9001,-4395
288,1,2739,-2857,-223,-6345,-8922,-4332
289,1,4992,-2960,271,-6267,-8852,-4415
290,1,6687,-2915,662,-6162,-8760,-4472
291,1,7460,-3221,650,-6065,-8681,-4563
292,1,7281,-3447,371,-5897,-8655,-4844
293,1,6339,-2773,906,-5602,-8695,-5311
294,1,4734,-1380,2112,-5184,-8702,-5865
295,1,2844,1,2685,-4592,-8606,-6369
296,1,431,1260,2707,-3955,-8511,-6852
297,1,-329,2483,2570,-3477,-8466,-7101
298,1,-310,2474,2461,-3298,-8446,-7079
299,1,-143,1750,2202,-3254,-8435,-7038
300,1,-26,841,1838,-3266,-8421,-7030
301,1,84,27,1464,-3271,-8406,-7031
302,1,150,-443,1251,-3263,-8389,-7053
303,1,185,-734,1140,-3253,-8375,-7068
304,1,203,-944,1077,-3246,-8362,-7078
305,1,222,-1154,997,-3253,-8351,-7092
306,1,262,-1136,898,-3257,-8341,-7101
307,1,293,-411,532,-3297,-8359,-7097
308,1,75,719,314,-3508,-8485,-7051
309,1,-937,1394,489,-3941,-8686,-6965
310,1,-2270,1776,806,-4516,-8878,-6784
311,1,-3607,1823,1303,-5167,-9015,-6318
312,1,-3883,1773,1384,-5789,-9052,-5577
313,1,-1965,359,461,-6260,-8960,-4966
314,1,1121,-1417,-532,-6464,-8853,-4724
315,1,3670,-2145,-337,-6463,-8788,-4772
316,1,5671,-2351,236,-6379,-8709,-4828
317,1,6449,-2790,-54,-6245,-8623,-4941
318,1,5950,-3052,-205,-6044,-8646,-5316
319,1,950,-267,1734,-5127,-8730,-6633
320,1,-2049,1516,1778,-4273,-8602,-7111
321,1,-2450,3482,1783,-3666,-8520,-7270
322,1,-1682,3237,1700,-3504,-8482,-7241
323,1,-1081,2395,1681,-3460,-8460,-7226
324,1,-661,1273,1398,-3473,-8443,-7216
325,1,-341,282,1193,-3491,-8430,-7223
326,1,-111,-257,1068,-3493,-8417,-7235
327,1,43,-631,1048,-3494,-8410,-7245
328,1,118,-957,1066,-3496,-8397,-7255
329,1,193,-1209,1010,-3492,-8383,-7264
330,1,213,-1365,976,-3479,-8366,-7275
331,1,240,-1434,930,-3466,-8352,-7286
332,1,276,-1432,913,-3458,-8339,-7296
333,1,421,-729,538,-3465,-8347,-7292
334,1,231,715,388,-3660,-8454,-7307
335,1,-968,1862,1148,-4182,-8627,-7295
336,1,-3248,2766,1510,-4852,-8841,-6812
337,1,-4028,986,577,-6314,-9012,-5301
338,1,-1226,-1005,-423,-6611,-8933,-4979
339,1,1749,-2037,-459,-6668,-8878,-4971
340,1,3969,-2272,152,-6588,-8812,-5037
341,1,5224,-2689,243,-6457,-8724,-5129
342,1,5263,-2596,-205,-6214,-8678,-5360
343,1,4408,-1935,156,-5840,-8709,-5751
344,1,1883,-911,1224,-5282,-8712,-6356
345,1,-1366,609,1552,-4479,-8584,-6894
346,1,-2771,2705,1344,-3731,-8456,-7121
347,1,-2024,3109,1200,-3489,-8401,-7078
348,1,-1383,2516,1043,-3408,-8377,-7014
349,1,-909,1186,814,-3455,-8369,-6999
350,1,-563,159,729,-3478,-8358,-7014
351,1,-315,-458,651,-3462,-8342,-7027
352,1,-124,-860,649,-3460,-8332,-7053
353,1,-29,-1104,711,-3452,-8323,-7072
354,1,47,-1272,737,-3439,-8310,-7084
355,1,98,-1423,749,-3407,-8296,-7068
356,1,138,-1374,723,-3385,-8284,-7050
357,1,240,-1162,536,-3394,-8286,-7048
358,1,268,-171,-49,-3443,-8349,-7014
359,1,-277,1068,-47,-3687,-8537,-6967
360,1,-1656,2062,611,-4225,-8792,-6854
361,1,-3498,2872,1186,-4946,-9043,-6389
362,1,-4699,3368,1485,-5782,-9226,-5584
363,1,-3140,1596,423,-6473,-9221,-4875
364,1,-306,-351,-650,-6765,-9145,-4562
365,1,2626,-1454,-581,-6809,-9097,-4553
366,1,4908,-1947,-14,-6731,-9021,-4614
367,1,5843,-2553,-269,-6606,-8950,-4758
368,1,5680,-2681,-60,-6432,-9001,-5156
369,1,4145,-2149,1060,-6174,-9119,-5746
370,1,1272,-1457,1819,-5687,-9130,-6571
371,1,-1753,409,1660,-4826,-9007,-7269
372,1,-2327,3281,1685,-4117,-8945,-7419
373,1,-1536,3344,2010,-4011,-8922,-7416
374,1,-974,2253,2036,-4004,-8920,-7364
375,1,-513,903,1828,-4026,-8902,-7341
376,1,-209,4,1534,-4016,-8876,-7344
377,1,26,-529,1412,-4005,-8854,-7353
378,1,231,-946,1355,-3990,-8833,-7364
379,1,361,-1230,1320,-3973,-8809,-7374
380,1,452,-1437,1262,-3955,-8787,-7381
381,1,527,-1503,1178,-3948,-8773,-7392
382,1,620,-1170,1045,-3964,-8772,-7403
383,1,632,-247,666,-4065,-8829,-7399
384,1,54,1140,523,-4410,-9011,-7351
385,1,-1881,2079,1016,-5066,-9268,-7198
386,1,-3877,2667,1459,-5853,-9502,-6547
387,1,-4946,2544,1328,-6618,-9602,-5538
388,1,-3036,238,-151,-7148,-9535,-4842
389,1,-40,-1394,-772,-7290,-9478,-4697
390,1,2985,-1699,-11,-7230,-9422,-4748
391,1,5146,-2093,679,-7124,-9325,-4786
392,1,5817,-2633,337,-6997,-9247,-4939
393,1,2709,-2408,663,-6395,-9369,-6281
394,1,-622,-778,1272,-5669,-9331,-7215
395,1,-2281,2078,1130,-4830,-9213,-7505
396,1,-1791,2820,1141,-4563,-9136,-7557
397,1,-1192,2658,1234,-4394,-9099,-7520
398,1,-715,1650,1323,-4385,-9080,-7507
399,1,-360,605,1166,-4387,-9065,-7486
400,1,-39,-293,1044,-4386,-9051,-7491
401,1,127,-768,1027,-4375,-9035,-7505
402,1,234,-1134,1038,-4368,-9023,-7523
403,1,316,-1346,1038,-4360,-9007,-7534
404,1,375,-1482,991,-4361,-8993,-7545
405,1,455,-1320,491,-4383,-8999,-7566
406,1,448,-1088,13,-4545,-9075,-7658
407,1,173,-1031,-220,-4756,-9203,-7740
408,1,-154,-1101,-265,-5040,-9350,-7854
409,1,-560,-1412,-284,-5390,-9484,-8021
410,1,-667,-1392,-519,-5562,-9559,-8088
411,1,-732,-1301,-881,-5675,-9599,-8146
412,1,-709,-948,-1253,-5746,-9618,-8216
413,1,-700,-609,-1518,-5791,-9641,-8262
414,1,-727,-344,-1638,-5817,-9665,-8273
415,1,-721,-156,-1734,-5854,-9689,-8286
416,1,-716,43,-1840,-5887,-9710,-8305
417,1,-719,201,-1887,-5913,-9732,-8317
418,1,-719,299,-1923,-5945,-9752,-8340
419,1,-704,382,-1973,-5977,-9771,-8361
420,1,-708,438,-1977,-6005,-9791,-8376
421,1,-700,507,-1984,-6037,-9811,-8394
422,1,-691,538,-2002,-6070,-9831,-8415
423,1,-681,574,-2003,-6099,-9851,-8431
424,1,-678,599,-2001,-6127,-9870,-8447
425,1,-663,627,-1980,-6158,-9890,-8467
426,1,-657,650,-1970,-6188,-9910,-8483
427,1,-655,647,-1964,-6217,-9928,-8501
428,1,-642,660,-1946,-6244,-9947,-8519
429,1,-639,671,-1934,-6274,-9965,-8537
430,1,-630,674,-1918,-6305,-9984,-8559
431,1,-608,680,-1900,-6333,-10002,-8575
432,1,-608,681,-1900,-6362,-10020,-8593
433,1,-608,696,-1882,-6388,-10038,-8608
434,1,-594,700,-1876,-6413,-10056,-8623
435,1,-584,707,-1868,-6439,-10074,-8640
436,1,-574,707,-1873,-6465,-10092,-8655
437,1,-569,720,-1853,-6489,-10109,-8667
438,1,-565,726,-1846,-6511,-10126,-8680
439,1,-550,724,-1825,-6535,-10143,-8694
440,2,6096,-540,858,-8413,-10372,-5315
441,2,7627,-1050,1399,-8316,-10287,-5365
442,2,7698,-1688,1320,-8217,-10235,-5557
443,2,6497,-1792,1089,-8068,-10270,-6083
444,2,3571,-878,1702,-7665,-10268,-7007
445,2,22,1592,2049,-6821,-10001,-8011
446,2,-2218,4606,2311,-6058,-9773,-8770
447,2,-1477,4190,2402,-5877,-9752,-8774
448,2,-903,2878,2217,-5790,-9721,-8729
449,2,-448,1328,1897,-5768,-9691,-8708
450,2,-122,205,1508,-5737,-9653,-8701
451,2,314,-1011,1181,-5678,-9598,-8715
452,2,438,-1335,1157,-5667,-9581,-8736
453,2,495,-1708,1172,-5666,-9565,-8756
454,2,517,-1924,1174,-5641,-9539,-8770
455,2,619,-1392,1145,-5623,-9526,-8754
456,2,450,-195,1100,-5720,-9580,-8688
457,2,-373,1057,1200,-6059,-9764,-8473
458,2,-2320,2323,1537,-6672,-10050,-7964
459,2,-4091,2766,1766,-7406,-10340,-6932
460,2,-3864,1560,1440,-8092,-10490,-5705
461,2,-1356,-864,310,-8449,-10465,-4955
462,2,1712,-1807,539,-8518,-10441,-4872
463,2,4348,-1934,1259,-8406,-10345,-4924
464,2,6268,-2121,1750,-8304,-10250,-4975
465,2,6995,-2635,1641,-8174,-10169,-5135
466,2,6413,-2573,1386,-7946,-10139,-5597
467,2,4702,-1492,1979,-7533,-10108,-6311
468,2,2102,475,2651,-6887,-9930,-7095
469,2,-391,2375,2379,-6159,-9696,-7712
470,2,-1261,3856,2263,-5675,-9574,-8137
471,2,-828,3379,2280,-5567,-9554,-8144
472,2,-513,2308,2079,-5526,-9536,-8098
473,2,-279,1081,1722,-5528,-9517,-8085
474,2,-100,216,1381,-5517,-9499,-8077
475,2,28,-351,1136,-5503,-9481,-8087
476,2,129,-740,1036,-5492,-9467,-8100
477,2,182,-975,1008,-5479,-9455,-8097
478,2,225,-1109,984,-5473,-9445,-8095
479,2,293,-951,940,-5481,-9444,-8072
480,2,256,323,883,-5565,-9500,-7988
481,2,-474,1723,969,-5923,-9700,-7696
482,2,-1681,2497,1199,-6557,-9969,-7246
483,2,-3025,3246,1745,-7261,-10226,-6487
484,2,-2998,2326,1680,-7927,-10353,-5385
485,2,-759,-77,754,-8328,-10324,-4683
486,2,2077,-1465,602,-8402,-10266,-4551
487,2,4562,-1635,1186,-8321,-10185,-4607
488,2,6363,-1833,1717,-8218,-10093,-4643
489,2,7346,-2257,1803,-8094,-10003,-4739
490,2,7184,-2430,1587,-7902,-9955,-5057
491,2,6322,-1814,1792,-7587,-9945,-5634
492,2,4368,-475,2553,-7080,-9867,-6318
493,2,1759,930,2532,-6338,-9645,-6886
494,2,-925,2759,2016,-5585,-9440,-7403
495,2,-836,3750,1959,-5282,-9370,-7543
496,2,-518,3021,1811,-5217,-9337,-7523
497,2,-258,1883,1412,-5209,-9329,-7483
498,2,-91,879,1195,-5230,-9328,-7476
499,2,29,143,1102,-5242,-9321,-7489
500,2,77,-307,1080,-5235,-9307,-7504
501,2,121,-596,1007,-5226,-9291,-7513
502,2,172,-757,913,-5212,-9277,-7515
503,2,237,-431,888,-5233,-9275,-7513
504,2,193,839,855,-5368,-9336,-7439
505,2,-564,1688,942,-5720,-9497,-7220
506,2,-1829,2164,1130,-6275,-9701,-6811
507,2,-3030,2505,1521,-6883,-9878,-6106
508,2,-2411,1785,1550,-7471,-9961,-5124
509,2,-418,-113,833,-7843,-9917,-4519
510,2,2452,-1278,715,-7946,-9868,-4373
511,2,4648,-1376,1294,-7863,-9787,-4402
512,2,6245,-1414,1803,-7757,-9700,-4437
513,2,6698,-1796,1630,-7615,-9623,-4578
514,2,6495,-1714,1355,-7364,-9588,-4948
515,2,5009,-1188,1788,-6934,-9541,-5607
516,2,2126,-142,2144,-6288,-9419,-6295
517,2,-1005,1682,1748,-5529,-9280,-6836
518,2,-1303,3446,1492,-5125,-9201,-7023
519,2,-806,3225,1326,-5001,-9178,-6945
520,2,-549,2304,1239,-4991,-9172,-6919
521,2,-372,1259,1009,-5025,-9173,-6895
522,2,-242,508,849,-5041,-9169,-6886
523,2,-160,-13,770,-5052,-9164,-6897
524,2,-113,-287,732,-5058,-9157,-6906
525,2,-62,-537,761,-5073,-9150,-6920
526,2,-15,-682,718,-5061,-9136,-6927
527,2,102,-574,584,-5058,-9127,-6919
528,2,171,344,277,-5137,-9168,-6902
529,2,-343,1724,358,-5501,-9322,-6907
530,2,-1989,2435,697,-6194,-9554,-6667
531,2,-3730,2727,1328,-6918,-9747,-5864
532,2,-3177,2047,1214,-7518,-9771,-4861
533,2,-942,229,393,-7886,-9671,-4337
534,2,1992,-819,147,-7985,-9591,-4225
535,2,4419,-1225,516,-7920,-9502,-4281
536,2,6283,-1492,913,-7818,-9412,-4331
537,2,7114,-1910,953,-7700,-9344,-4434
538,2,6958,-1998,649,-7493,-9344,-4746
539,2,5564,-1535,1197,-7149,-9404,-5342
540,2,2699,-647,1562,-6525,-9342,-6097
541,2,-689,1046,1230,-5697,-9190,-6827
542,2,-1365,3087,956,-5120,-9140,-6805
543,2,-809,3083,898,-5022,-9093,-6820
544,2,-530,2501,924,-5001,-9090,-6779
545,2,-302,1290,773,-5053,-9090,-6761
546,2,-204,306,642,-5083,-9082,-6770
547,2,-83,-229,524,-5076,-9069,-6788
548,2,-9,-519,547,-5073,-9062,-6805
549,2,20,-751,581,-5064,-9053,-6822
550,2,38,-877,579,-5057,-9044,-6826
551,2,111,-893,519,-5066,-9041,-6830
552,2,200,-423,262,-5102,-9059,-6840
553,2,65,493,-96,-5271,-9159,-6847
554,2,-559,1172,-6,-5682,-9328,-6906
555,2,-1925,1567,597,-6226,-9511,-6754
556,2,-3809,2570,1249,-6848,-9677,-5998
557,2,-3663,2359,1100,-7542,-9728,-5006
558,2,-1424,461,58,-7966,-9623,-4422
559,2,1611,-930,-526,-8073,-9537,-4338
560,2,4111,-1157,73,-8027,-9473,-4421
561,2,6007,-1568,493,-7926,-9382,-4476
562,2,6572,-2162,489,-7791,-9321,-4648
563,2,5989,-2066,481,-7534,-9319,-5113
564,2,4235,-1187,859,-7113,-9342,-5788
565,2,848,109,1839,-6457,-9252,-6592
566,2,-2017,2532,1478,-5550,-9040,-7093
567,2,-1827,3784,1162,-5104,-8947,-7098
568,2,-1124,3640,1221,-5006,-8897,-7100
569,2,-695,2526,1238,-5015,-8884,-7077
570,2,-333,1064,1053,-5055,-8878,-7060
571,2,-80,159,970,-5048,-8858,-7075
572,2,81,-320,951,-5032,-8841,-7094
573,2,173,-632,1005,-5021,-8826,-7105
574,2,276,-860,995,-5014,-8813,-7108
575,2,366,-647,920,-5022,-8814,-7105
576,2,359,-129,831,-5117,-8862,-7093
577,2,0,422,871,-5327,-8960,-7022
578,2,-625,1119,732,-5662,-9116,-6851
579,2,-1468,1619,730,-6150,-9300,-6638
580,2,-2432,2127,1241,-6703,-9479,-6151
581,2,-3295,2428,1953,-7316,-9593,-5291
582,2,-1922,605,1035,-7874,-9542,-4471
583,2,961,-1443,-104,-8099,-9449,-4189
584,2,3512,-2168,-24,-8083,-9392,-4216
585,2,5350,-2392,385,-7981,-9319,-4315
586,2,5711,-2836,69,-7839,-9300,-4572
587,2,4847,-2061,819,-7550,-9371,-5029
588,2,3496,-518,1804,-7013,-9304,-5549
589,2,1579,1130,2164,-6227,-9079,-6123
590,2,-1288,2982,1730,-5425,-8876,-6681
591,2,-1120,3930,1633,-5112,-8836,-6800
592,2,-785,3133,1520,-5064,-8805,-6774
593,2,-490,1944,1296,-5078,-8790,-6753
594,2,-295,926,1044,-5083,-8778,-6726
595,2,-151,286,865,-5084,-8768,-6725
596,2,-20,-248,788,-5083,-8760,-6733
597,2,46,-570,807,-5077,-8748,-6756
598,2,69,-724,830,-5071,-8739,-6766
599,2,132,-697,740,-5070,-8734,-6763
600,2,202,129,550,-5128,-8762,-6767
601,2,-230,1309,604,-5357,-8880,-6677
602,2,-1219,2135,738,-5795,-9063,-6452
603,2,-2577,2504,1179,-6377,-9253,-5972
604,2,-3399,2555,1549,-6993,-9371,-5251
605,2,-2597,1772,1358,-7574,-9361,-4470
606,2,-381,-434,180,-7953,-9267,-3954
607,2,2443,-2165,-223,-8046,-9199,-3863
608,2,4720,-2360,299,-7953,-9129,-3937
609,2,6298,-2615,668,-7858,-9050,-4016
610,2,6680,-3062,495,-7739,-9011,-4200
611,2,6272,-2897,677,-7490,-9042,-4597
612,2,4824,-1839,1329,-7018,-9040,-5154
613,2,2611,-151,1809,-6308,-8904,-5755
614,2,-506,2006,1534,-5504,-8752,-6343
615,2,-761,3788,1820,-5175,-8726,-6492
616,2,-498,2996,1596,-5131,-8688,-6520
617,2,-323,1782,1321,-5114,-8669,-6512
618,2,-214,952,990,-5088,-8651,-6506
619,2,-126,384,819,-5087,-8645,-6517
620,2,-70,-6,782,-5091,-8641,-6528
621,2,-32,-341,775,-5116,-8637,-6560
622,2,3,-648,702,-5134,-8630,-6574
623,2,71,-606,529,-5153,-8630,-6577
624,2,71,241,237,-5231,-8677,-6549
625,2,-458,1384,384,-5526,-8804,-6536
626,2,-1563,1783,869,-6000,-8955,-6407
627,2,-3310,2345,1424,-6510,-9074,-5884
628,2,-4752,2500,1438,-7181,-9138,-4963
629,2,-2976,459,136,-7766,-9075,-4292
630,2,-15,-1519,-805,-7994,-9004,-4081
631,2,2770,-2199,-447,-7980,-8951,-4128
632,2,4873,-2424,142,-7881,-8872,-4208
633,2,5995,-2657,396,-7758,-8799,-4310
634,2,6093,-2774,387,-7565,-8774,-4533
635,2,5398,-2065,940,-7180,-8761,-4898
636,2,4102,-214,1830,-6602,-8645,-5300
637,2,2590,1233,2146,-5978,-8468,-5816
638,2,-74,2555,1872,-5376,-8355,-6293
639,2,-572,3445,1781,-5058,-8335,-6490
640,2,-441,2824,1486,-4997,-8321,-6483
641,2,-348,1860,1215,-4995,-8317,-6493
642,2,-289,871,928,-4997,-8312,-6496
643,2,-262,214,655,-4996,-8307,-6511
644,2,-237,-259,487,-5000,-8306,-6532
645,2,-200,-453,214,-4997,-8309,-6543
646,2,-165,-356,-355,-5047,-8352,-6566
647,2,-273,-232,-774,-5195,-8457,-6639
648,2,-594,-355,-877,-5453,-8613,-6754
649,2,-913,-546,-728,-5718,-8756,-6897
650,2,-1058,-809,-859,-5930,-8851,-7015
651,2,-1091,-770,-1196,-6049,-8901,-7089
652,2,-1059,-544,-1570,-6131,-8940,-7154
653,2,-1023,-211,-1829,-6185,-8976,-7203
654,2,-1043,15,-1952,-6228,-9012,-7235
655,2,-1048,249,-2064,-6255,-9037,-7249
656,2,-1024,412,-2225,-6294,-9064,-7265
657,2,-1021,506,-2290,-6324,-9091,-7280
658,2,-1014,604,-2328,-6354,-9115,-7293
659,2,-987,679,-2378,-6383,-9139,-7310
660,2,-972,730,-2388,-6411,-9164,-7323
661,2,-963,770,-2379,-6439,-9189,-7337
662,2,-954,806,-2399,-6466,-9211,-7353
663,2,-948,820,-2389,-6492,-9235,-7368
664,2,-931,837,-2358,-6520,-9260,-7379
665,2,-918,866,-2356,-6548,-9283,-7397
666,2,-904,872,-2332,-6574,-9306,-7411
667,2,-894,870,-2316,-6600,-9328,-7426
668,2,-884,881,-2301,-6628,-9352,-7440
669,2,-878,886,-2288,-6653,-9374,-7452
670,2,-865,892,-2285,-6678,-9397,-7464
671,2,-856,902,-2258,-6705,-9420,-7476
672,2,-839,901,-2250,-6731,-9443,-7491
673,2,-831,899,-2242,-6758,-9465,-7505
674,2,-823,900,-2233,-6784,-9488,-7522
675,2,-809,900,-2209,-6810,-9509,-7542
676,2,-797,885,-2194,-6836,-9531,-7558
677,2,-782,871,-2183,-6863,-9553,-7574
678,2,-778,882,-2178,-6888,-9575,-7592
679,3,5224,-1298,1,-8534,-9454,-4616
680,3,5569,-2006,358,-8387,-9420,-4925
681,3,4910,-1832,1139,-8099,-9419,-5571
682,3,3154,-559,1878,-7565,-9330,-6419
683,3,200,838,2433,-6915,-9149,-7366
684,3,-1383,3437,2811,-6272,-9004,-7923
685,3,-783,3286,2991,-6152,-8977,-7841
686,3,-347,2561,2762,-6053,-8930,-7798
687,3,42,1399,2444,-6022,-8899,-7767
688,3,280,630,2190,-6000,-8876,-7748
689,3,475,142,2036,-5991,-8859,-7740
690,3,565,-149,1998,-6002,-8854,-7722
691,3,727,127,1645,-6035,-8859,-7710
692,3,532,1465,1177,-6198,-8982,-7621
693,3,-943,2573,1749,-6686,-9249,-7438
694,3,-3034,2964,2479,-7335,-9542,-6736
695,3,-4050,3018,2636,-8034,-9739,-5745
696,3,-113,-1195,599,-8926,-9741,-4374
697,3,2762,-2006,664,-8925,-9689,-4361
698,3,5010,-2380,1064,-8816,-9609,-4459
699,3,5533,-2856,1049,-8661,-9543,-4663
700,3,4627,-2999,978,-8404,-9566,-5307
701,3,2264,-1859,2056,-7892,-9544,-6237
702,3,-653,405,2785,-7122,-9314,-7107
703,3,-2022,3582,2613,-6427,-9143,-7553
704,3,-1136,3579,2682,-6298,-9095,-7522
705,3,-550,2737,2548,-6227,-9057,-7483
706,3,-123,1733,2349,-6206,-9029,-7462
707,3,180,843,2148,-6199,-9012,-7448
708,3,391,268,2087,-6183,-8994,-7443
709,3,516,-116,2079,-6166,-8975,-7437
710,3,640,-198,1989,-6162,-8961,-7431
711,3,786,-42,1846,-6202,-8974,-7412
712,3,715,762,1630,-6297,-9028,-7351
713,3,154,1900,1634,-6594,-9192,-7209
714,3,-1322,2559,1910,-7098,-9422,-6898
715,3,-3228,2815,2543,-7732,-9647,-6151
716,3,-3977,2283,2370,-8439,-9757,-5025
717,3,-1875,-599,842,-8910,-9682,-4274
718,3,1212,-2382,112,-9015,-9608,-4122
719,3,3888,-2526,589,-8941,-9549,-4191
720,3,5822,-2826,899,-8833,-9458,-4249
721,3,6197,-3256,530,-8673,-9413,-4501
722,3,5315,-2858,813,-8430,-9501,-5047
723,3,3121,-2112,2101,-8014,-9555,-5846
724,3,56,-559,3097,-7313,-9374,-6663
725,3,-2082,1837,2534,-6509,-9132,-7023
726,3,-1407,3233,2078,-6146,-9024,-7067
727,3,-686,3078,2060,-6072,-8986,-7086
728,3,-160,1982,2091,-6081,-8979,-7095
729,3,197,870,2147,-6103,-8974,-7081
730,3,437,63,2133,-6080,-8945,-7092
731,3,595,-338,2105,-6059,-8916,-7100
732,3,776,-585,2029,-6048,-8889,-7110
733,3,979,12,1734,-6119,-8908,-7080
734,3,577,815,1788,-6307,-9020,-6923
735,3,-369,1426,1989,-6660,-9184,-6660
736,3,-1684,2229,2082,-7155,-9380,-6132
737,3,-3441,3119,2441,-7868,-9585,-5201
738,3,-2977,675,1791,-8610,-9608,-4152
739,3,-430,-2255,417,-8878,-9503,-3708
740,3,2381,-2622,569,-8849,-9458,-3776
741,3,4390,-2823,873,-8746,-9389,-3856
742,3,4881,-3362,769,-8587,-9377,-4176
743,3,4113,-3264,1477,-8278,-9436,-4858
744,3,2073,-2267,2665,-7729,-9387,-5771
745,3,-677,-91,2807,-6995,-9199,-6524
746,3,-1710,2599,2607,-6390,-9083,-6877
747,3,-875,2971,2650,-6276,-9030,-6905
748,3,-326,2458,2708,-6214,-8996,-6887
749,3,187,1291,2539,-6211,-8965,-6893
750,3,525,521,2360,-6186,-8940,-6879
751,3,759,-2,2301,-6165,-8919,-6868
752,3,908,-233,2320,-6142,-8897,-6855
753,3,1035,-243,2293,-6145,-8886,-6828
754,3,1081,363,2188,-6199,-8904,-6768
755,3,803,1247,2060,-6383,-9001,-6614
756,3,-50,1945,2124,-6739,-9171,-6325
757,3,-1320,2658,2302,-7261,-9382,-5747
758,3,-2604,2755,2874,-7940,-9550,-4887
759,3,-2072,857,2474,-8571,-9551,-3855
760,3,350,-2177,1019,-8887,-9466,-3426
761,3,2878,-2682,1226,-8875,-9436,-3491
762,3,4927,-2708,1418,-8771,-9357,-3543
763,3,5419,-3111,1337,-8641,-9338,-3759
764,3,5096,-3068,1664,-8402,-9377,-4297
765,3,3777,-2595,2592,-7992,-9390,-5104
766,3,1305,-1249,2784,-7308,-9267,-5928
767,3,-1639,1335,2261,-6523,-9155,-6492
768,3,-1185,2782,2332,-6251,-9113,-6662
769,3,-662,2576,2337,-6177,-9082,-6646
770,3,-237,1675,2324,-6182,-9074,-6600
771,3,75,710,2088,-6189,-9053,-6574
772,3,347,-46,1902,-6178,-9029,-6580
773,3,506,-482,1822,-6160,-9005,-6589
774,3,623,-700,1793,-6132,-8977,-6597
775,3,726,-790,1704,-6111,-8956,-6604
776,3,809,-478,1620,-6120,-8954,-6586
777,3,774,307,1429,-6227,-9009,-6523
778,3,232,1207,1624,-6502,-9135,-6398
779,3,-870,1913,1766,-6928,-9302,-6048
780,3,-2026,2249,1887,-7496,-9475,-5383
781,3,-2365,2315,2129,-8077,-9582,-4581
782,3,-1576,931,1960,-8624,-9576,-3684
783,3,843,-2124,893,-8910,-9477,-3292
784,3,3458,-2530,1032,-8884,-9421,-3323
785,3,5416,-2510,1270,-8786,-9337,-3378
786,3,5793,-2950,1142,-8661,-9312,-3573
787,3,5175,-2856,1496,-8409,-9376,-4106
788,3,3547,-1966,2356,-7871,-9362,-4851
789,3,672,-723,2513,-7138,-9200,-5799
790,3,-1195,3009,2539,-6406,-9101,-6418
791,3,-471,2776,2375,-6356,-9093,-6360
792,3,-97,2152,2289,-6252,-9060,-6318
793,3,263,1112,2047,-6243,-9039,-6320
794,3,452,396,1904,-6231,-9027,-6309
795,3,587,-309,1851,-6220,-9011,-6315
796,3,651,-770,1761,-6194,-8985,-6320
797,3,712,-995,1683,-6167,-8960,-6330
798,3,769,-1136,1607,-6148,-8938,-6331
799,3,821,-1209,1555,-6134,-8921,-6335
800,3,906,-999,1370,-6128,-8912,-6321
801,3,843,-84,961,-6127,-8957,-6196
802,3,229,1632,851,-6341,-9125,-6026
803,3,-1627,2824,1405,-6972,-9395,-5658
804,3,-3685,3431,1919,-7745,-9609,-4796
805,3,-3999,1965,1487,-8545,-9645,-3756
806,3,-1566,-1197,47,-8932,-9537,-3222
807,3,1362,-2307,0,-9010,-9492,-3147
808,3,3931,-2808,411,-8929,-9422,-3224
809,3,4801,-3308,488,-8797,-9372,-3434
810,3,4588,-3166,820,-8543,-9420,-3908
811,3,3732,-1883,1716,-8066,-9423,-4577
812,3,2173,-68,2575,-7415,-9310,-5382
813,3,-570,1496,2544,-6762,-9192,-6182
814,3,-862,2731,2465,-6349,-9152,-6419
815,3,-509,2346,2421,-6254,-9110,-6427
816,3,-70,1417,2199,-6215,-9077,-6415
817,3,217,442,1921,-6205,-9051,-6399
818,3,455,-303,1716,-6189,-9029,-6396
819,3,602,-794,1600,-6174,-9008,-6399
820,3,706,-1141,1533,-6160,-8990,-6407
821,3,741,-1369,1522,-6143,-8971,-6411
822,3,783,-1443,1539,-6123,-8950,-6423
823,3,819,-1230,1472,-6114,-8936,-6421
824,3,793,-152,1286,-6182,-8970,-6381
825,3,212,1531,1306,-6468,-9115,-6141
826,3,-1752,3108,1559,-7068,-9355,-5587
827,3,-3789,4071,2258,-7894,-9553,-4482
828,3,-4200,1551,1521,-8746,-9552,-3337
829,3,-1985,-1290,322,-9116,-9458,-2849
830,3,1227,-2424,-2,-9150,-9402,-2827
831,3,3795,-2998,285,-9059,-9327,-2891
832,3,4787,-3572,305,-8911,-9277,-3093
833,3,4848,-3307,505,-8637,-9316,-3524
834,3,4020,-2252,1579,-8184,-9367,-4216
835,3,2039,-726,2669,-7505,-9292,-5099
836,3,-722,1362,2321,-6756,-9167,-5898
837,3,-1013,3441,2498,-6342,-9148,-6099
838,3,-511,2800,2149,-6249,-9108,-6063
839,3,-145,1779,1956,-6231,-9087,-6029
840,3,107,816,1750,-6211,-9065,-6011
841,3,304,126,1588,-6203,-9047,-6005
842,3,442,-363,1477,-6194,-9030,-6004
843,3,632,-540,1163,-6196,-9023,-6015
844,3,721,-486,548,-6266,-9061,-6091
845,3,512,-594,94,-6471,-9177,-6276
846,3,65,-702,-129,-6672,-9327,-6397
847,3,-375,-893,-155,-6901,-9504,-6468
848,3,-546,-1210,-93,-7147,-9630,-6599
849,3,-664,-1397,-478,-7306,-9689,-6727
850,3,-628,-955,-1028,-7370,-9727,-6758
851,3,-687,-750,-1387,-7417,-9750,-6840
852,3,-680,-408,-1653,-7462,-9781,-6859
853,3,-683,-255,-1886,-7512,-9807,-6891
854,3,-659,-75,-2045,-7544,-9829,-6908
855,3,-653,84,-2112,-7574,-9851,-6915
856,3,-644,212,-2172,-7606,-9872,-6928
857,3,-642,316,-2217,-7638,-9894,-6949
858,3,-635,393,-2229,-7669,-9917,-6973
859,3,-613,442,-2208,-7697,-9939,-6987
860,3,-593,492,-2206,-7724,-9960,-6997
861,3,-592,562,-2201,-7752,-9980,-7013
862,3,-583,607,-2179,-7786,-10004,-7024
863,3,-568,653,-2156,-7812,-10024,-7030
864,3,-540,683,-2116,-7855,-10062,-7030
865,3,-524,732,-2079,-7877,-10081,-7042
866,3,-512,757,-2035,-7900,-10101,-7049
867,3,-497,782,-2004,-7924,-10120,-7058
868,3,-481,804,-1979,-7948,-10140,-7068
869,3,-476,815,-1950,-7973,-10159,-7078
870,3,-462,843,-1922,-7997,-10178,-7090
871,3,-452,856,-1901,-8023,-10198,-7106
872,3,-434,862,-1890,-8051,-10217,-7122
873,3,-417,866,-1881,-8075,-10237,-7135
874,3,-414,871,-1866,-8098,-10256,-7144
875,3,-405,872,-1849,-8119,-10274,-7152
876,3,-400,876,-1841,-8136,-10291,-7158
877,3,-390,882,-1813,-8155,-10309,-7160
878,4,5278,-1293,241,-9820,-10047,-3802
879,4,6480,-2172,435,-9702,-9955,-3928
880,4,6521,-2822,579,-9532,-9964,-4349
881,4,5359,-2344,1325,-9184,-10006,-5102
882,4,3214,-915,1997,-8599,-9899,-6027
883,4,423,1272,2183,-7893,-9707,-6982
884,4,-912,3351,2373,-7412,-9638,-7571
885,4,-556,2981,2616,-7355,-9616,-7541
886,4,13,1094,2074,-7280,-9559,-7473
887,4,175,412,1754,-7271,-9544,-7468
888,4,295,-72,1626,-7269,-9535,-7464
889,4,419,-376,1519,-7271,-9527,-7458
890,4,465,78,1330,-7279,-9541,-7405
891,4,187,1297,1390,-7419,-9638,-7216
892,4,-750,2581,1479,-7859,-9871,-6786
893,4,-2185,3402,1825,-8508,-10139,-6038
894,4,-2995,3579,2128,-9207,-10315,-4960
895,4,-1960,1447,1558,-9818,-10331,-3854
896,4,630,-1200,778,-10102,-10274,-3372
897,4,3383,-2314,878,-10080,-10211,-3397
898,4,5448,-2720,1254,-9963,-10132,-3522
899,4,5843,-3295,1082,-9771,-10078,-3844
900,4,5236,-2855,1350,-9426,-10085,-4556
901,4,3706,-1202,2264,-8866,-9996,-5462
902,4,1766,959,2993,-8167,-9807,-6298
903,4,-523,3322,2573,-7514,-9630,-6807
904,4,-340,3897,2401,-7327,-9595,-6981
905,4,-164,3282,2198,-7286,-9570,-6969
906,4,27,2260,1958,-7284,-9557,-6951
907,4,122,1367,1674,-7284,-9546,-6936
908,4,214,711,1489,-7286,-9539,-6934
909,4,296,267,1351,-7284,-9532,-6931
910,4,355,75,1201,-7270,-9530,-6932
911,4,406,442,1056,-7298,-9551,-6885
912,4,257,1415,873,-7452,-9644,-6800
913,4,-406,2309,801,-7821,-9820,-6668
914,4,-1551,2965,1025,-8411,-10048,-6317
915,4,-3101,3703,1882,-9072,-10220,-5538
916,4,-3169,2281,1750,-9716,-10221,-4144
917,4,-749,-584,488,-10089,-10123,-3469
918,4,2195,-1721,375,-10140,-10083,-3458
919,4,4554,-2090,796,-10046,-10006,-3562
920,4,5505,-2703,757,-9889,-9953,-3801
921,4,5333,-2666,995,-9595,-9972,-4387
922,4,3753,-1576,1536,-9103,-9965,-5280
923,4,710,-51,2187,-8483,-9878,-6294
924,4,-1758,2620,2104,-7802,-9740,-6928
925,4,-1261,3295,1857,-7557,-9700,-6898
926,4,-759,2815,1688,-7475,-9664,-6917
927,4,-416,1785,1633,-7487,-9659,-6937
928,4,-194,782,1474,-7487,-9649,-6938
929,4,-15,28,1289,-7476,-9631,-6955
930,4,105,-419,1200,-7456,-9614,-6972
931,4,206,-668,1155,-7437,-9598,-6982
932,4,294,-787,1088,-7434,-9587,-6976
933,4,376,-612,991,-7446,-9587,-6955
934,4,304,313,758,-7530,-9641,-6871
935,4,-192,1284,814,-7829,-9789,-6741
936,4,-1373,2051,1273,-8310,-9984,-6376
937,4,-2922,2830,1620,-8917,-10150,-5571
938,4,-3264,2378,1514,-9553,-10192,-4487
939,4,-1388,-11,622,-10016,-10118,-3642
940,4,1493,-1829,219,-10166,-10048,-3389
941,4,5974,-2603,1242,-10016,-9889,-3499
942,4,6533,-3216,1194,-9880,-9826,-3699
943,4,6085,-3250,1399,-9594,-9824,-4246
944,4,4814,-2160,1929,-9109,-9783,-5021
945,4,2638,-359,2340,-8466,-9641,-5848
946,4,-128,1590,2431,-7849,-9494,-6573
947,4,-823,3032,2494,-7461,-9438,-6906
948,4,-469,2973,2355,-7342,-9406,-6848
949,4,-158,2072,2093,-7321,-9390,-6837
950,4,35,1023,1825,-7320,-9378,-6827
951,4,138,280,1588,-7310,-9362,-6823
952,4,228,-175,1404,-7304,-9348,-6839
953,4,306,-493,1317,-7297,-9335,-6853
954,4,348,-670,1319,-7295,-9324,-6877
955,4,383,-274,1163,-7312,-9322,-6851
956,4,371,959,963,-7451,-9395,-6792
957,4,-467,1967,984,-7799,-9561,-6616
958,4,-2197,2480,1169,-8346,-9774,-6162
959,4,-3318,1008,793,-9693,-9909,-4130
960,4,-576,-1324,-111,-9999,-9833,-3635
961,4,2298,-2220,219,-10030,-9791,-3591
962,4,4667,-2410,866,-9942,-9708,-3649
963,4,5698,-2857,931,-9822,-9630,-3791
964,4,5699,-3067,1043,-9598,-9629,-4206
965,4,4749,-2319,1860,-9209,-9633,-4875
966,4,3012,-731,2380,-8634,-9524,-5629
967,4,987,843,2363,-8015,-9378,-6339
968,4,-893,3078,2402,-7507,-9325,-6881
969,4,-468,2882,2496,-7428,-9313,-6868
970,4,-287,2011,2211,-7374,-9288,-6838
971,4,-99,1031,1863,-7356,-9263,-6837
972,4,88,278,1528,-7339,-9246,-6846
973,4,201,-254,1364,-7319,-9229,-6857
974,4,287,-612,1269,-7304,-9213,-6870
975,4,335,-790,1194,-7292,-9199,-6870
976,4,429,-597,1019,-7299,-9198,-6874
977,4,-177,1149,1003,-7620,-9379,-6687
978,4,-1111,1595,1021,-7997,-9542,-6437
979,4,-2316,2273,1342,-8464,-9706,-5969
980,4,-3741,2895,1815,-9088,-9816,-5079
981,4,-2923,884,926,-9709,-9776,-4051
982,4,-227,-1526,-154,-10004,-9677,-3585
983,4,2775,-2762,-214,-10029,-9624,-3570
984,4,4535,-3196,125,-9903,-9567,-3752
985,4,4895,-3322,96,-9684,-9562,-4151
986,4,4082,-2666,748,-9325,-9625,-4822
987,4,2108,-1221,1937,-8812,-9617,-5681
988,4,-894,757,2196,-8159,-9496,-6395
989,4,-1863,2682,1989,-7657,-9417,-6739
990,4,-1358,3046,1997,-7488,-9354,-6825
991,4,-791,2431,1847,-7441,-9330,-6786
992,4,-407,1352,1648,-7439,-9318,-6774
993,4,-151,376,1475,-7452,-9307,-6787
994,4,58,-306,1340,-7445,-9290,-6796
995,4,219,-699,1239,-7431,-9273,-6810
996,4,323,-983,1202,-7422,-9259,-6821
997,4,384,-1144,1172,-7408,-9244,-6824
998,4,457,-1170,1045,-7404,-9234,-6812
999,4,543,-302,767,-7401,-9261,-6699
1000,4,161,1177,807,-7593,-9396,-6541
1001,4,-1156,2351,1173,-8058,-9610,-6249
1002,4,-3088,3086,1445,-8754,-9837,-5443
1003,4,-3534,2799,1697,-9455,-9940,-4391
1004,4,-1882,566,923,-10028,-9897,-3473
1005,4,599,-1706,347,-10243,-9825,-3176
1006,4,3352,-2570,470,-10229,-9765,-3199
1007,4,5358,-3069,704,-10110,-9692,-3329
1008,4,5891,-3531,587,-9942,-9679,-3633
1009,4,5490,-3294,1054,-9639,-9734,-4212
1010,4,3999,-1951,1939,-9138,-9716,-4958
1011,4,1751,-178,2213,-8509,-9600,-5715
1012,4,-791,1738,1984,-7925,-9504,-6372
1013,4,-872,2892,1910,-7614,-9450,-6507
1014,4,-485,2797,1859,-7521,-9416,-6538
1015,4,-234,1878,1817,-7524,-9406,-6538
1016,4,-34,786,1533,-7529,-9392,-6537
1017,4,108,19,1337,-7516,-9376,-6547
1018,4,192,-386,1254,-7498,-9359,-6557
1019,4,267,-647,1183,-7488,-9345,-6556
1020,4,331,-917,1133,-7481,-9332,-6555
1021,4,373,-1095,1065,-7473,-9316,-6546
1022,4,416,-1137,988,-7467,-9304,-6546
1023,4,515,-539,745,-7467,-9314,-6495
1024,4,399,705,562,-7626,-9413,-6451
1025,4,-578,1753,1055,-7987,-9586,-6336
1026,4,-2116,2320,1628,-8474,-9749,-5837
1027,4,-3352,2656,1757,-9049,-9840,-5017
1028,4,-3268,2054,1426,-9652,-9814,-4100
1029,4,-1209,-385,202,-10038,-9672,-3442
1030,4,1729,-2432,-467,-10143,-9574,-3278
1031,4,4263,-2867,56,-10084,-9521,-3360
1032,4,5937,-3375,330,-9980,-9441,-3465
1033,4,6252,-3853,159,-9818,-9430,-3763
1034,4,5666,-3557,596,-9530,-9502,-4327
1035,4,4139,-2063,1756,-9070,-9531,-5064
1036,4,2013,39,2251,-8480,-9434,-5711
1037,4,-88,1704,2413,-7927,-9334,-6251
1038,4,-707,2949,2595,-7573,-9284,-6547
1039,4,-412,2823,2445,-7464,-9246,-6559
1040,4,-138,1830,2045,-7443,-9224,-6569
1041,4,34,862,1721,-7432,-9207,-6576
1042,4,164,73,1421,-7425,-9194,-6592
1043,4,236,-337,1194,-7417,-9184,-6606
1044,4,318,-314,731,-7448,-9203,-6623
1045,4,319,-356,184,-7609,-9286,-6749
1046,4,76,-551,-139,-7802,-9412,-6866
1047,4,-260,-660,-364,-8074,-9568,-7030
1048,4,-503,-1132,-495,-8305,-9693,-7183
1049,4,-646,-1182,-693,-8409,-9760,-7212
1050,4,-658,-1018,-1040,-8489,-9807,-7252
1051,4,-698,-916,-1306,-8525,-9819,-7342
1052,4,-653,-458,-1538,-8548,-9845,-7354
1053,4,-662,-275,-1604,-8575,-9868,-7357
1054,4,-652,-22,-1741,-8602,-9889,-7365
1055,4,-617,140,-1811,-8626,-9911,-7369
1056,4,-606,291,-1837,-8644,-9928,-7371
1057,4,-594,418,-1857,-8664,-9946,-7370
1058,4,-585,490,-1866,-8685,-9966,-7375
1059,4,-558,563,-1850,-8705,-9985,-7378
1060,4,-553,612,-1832,-8725,-10004,-7385
1061,4,-548,657,-1833,-8745,-10022,-7396
1062,4,-535,687,-1814,-8765,-10041,-7403
1063,4,-525,726,-1802,-8782,-10058,-7409
1064,4,-504,743,-1785,-8801,-10076,-7415
1065,4,-499,778,-1755,-8818,-10093,-7422
1066,4,-492,787,-1746,-8838,-10111,-7431
1067,4,-488,802,-1731,-8857,-10128,-7442
1068,4,-480,811,-1717,-8879,-10147,-7454
1069,4,-472,818,-1702,-8900,-10165,-7466
1070,4,-463,818,-1703,-8918,-10182,-7474
1071,4,-444,820,-1675,-8936,-10199,-7485
1072,4,-439,830,-1662,-8954,-10216,-7495
1073,4,-429,831,-1644,-8973,-10233,-7503
1074,4,-422,835,-1629,-8990,-10250,-7511
1075,4,-410,829,-1616,-9007,-10266,-7522
1076,4,-398,835,-1598,-9022,-10281,-7525
1077,4,-400,835,-1593,-9039,-10297,-7532
1078,4,-389,833,-1585,-9053,-10312,-7540
1079,5,5356,-845,390,-10790,-10286,-4097
1080,5,6567,-1701,789,-10674,-10213,-4263
1081,5,6610,-2291,1052,-10479,-10206,-4731
1082,5,5588,-2006,1637,-10117,-10189,-5489
1083,5,3483,-880,2364,-9551,-10047,-6399
1084,5,325,706,2486,-8859,-9812,-7356
1085,5,-1132,3255,2616,-8335,-9659,-7939
1086,5,-537,3114,2762,-8267,-9621,-7872
1087,5,-126,2331,2692,-8208,-9587,-7811
1088,5,218,1331,2476,-8185,-9556,-7769
1089,5,464,568,2287,-8163,-9532,-7751
1090,5,643,34,2211,-8145,-9511,-7742
1091,5,741,-336,2200,-8126,-9490,-7735
1092,5,815,-582,2153,-8106,-9467,-7721
1093,5,872,-748,2110,-8091,-9445,-7714
1094,5,889,-861,2102,-8078,-9426,-7699
1095,5,927,-798,2054,-8072,-9411,-7677
1096,5,979,-176,1873,-8098,-9423,-7609
1097,5,720,1166,1809,-8245,-9533,-7449
1098,5,-244,2350,2031,-8639,-9755,-7167
1099,5,-1969,3006,2361,-9226,-10021,-6492
1100,5,-3295,3034,2802,-9914,-10211,-5403
1101,5,-2281,1029,2175,-10512,-10203,-4234
1102,5,174,-1595,1027,-10814,-10138,-3678
1103,5,3047,-2648,991,-10836,-10105,-3646
1104,5,4945,-3178,1095,-10710,-10032,-3824
1105,5,5415,-3609,1006,-10483,-10001,-4268
1106,5,4748,-3132,1645,-10099,-10001,-5035
1107,5,3064,-1542,2404,-9535,-9890,-5949
1108,5,482,389,2867,-8914,-9715,-6748
1109,5,-1221,2524,2885,-8395,-9566,-7278
1110,5,-916,3560,2875,-8189,-9497,-7368
1111,5,-391,3152,2776,-8156,-9473,-7343
1112,5,-60,1969,2570,-8167,-9461,-7334
1113,5,156,937,2283,-8166,-9447,-7314
1114,5,325,269,2019,-8160,-9429,-7323
1115,5,443,-257,1900,-8149,-9411,-7342
1116,5,530,-532,1824,-8124,-9389,-7341
1117,5,592,-710,1763,-8104,-9368,-7329
1118,5,646,-830,1731,-8088,-9349,-7321
1119,5,690,-845,1675,-8078,-9334,-7316
1120,5,775,-428,1629,-8094,-9337,-7269
1121,5,729,679,1606,-8201,-9405,-7120
1122,5,142,1814,1808,-8493,-9562,-6882
1123,5,-956,2728,2035,-8960,-9771,-6394
1124,5,-2126,3238,2458,-9557,-9965,-5568
1125,5,-2071,2903,2496,-10194,-10052,-4505
1126,5,-394,137,1486,-10651,-10012,-3737
1127,5,4596,-2180,1239,-10685,-9868,-3643
1128,5,6154,-2475,1433,-10569,-9789,-3766
1129,5,6364,-2999,1171,-10380,-9762,-4104
1130,5,5502,-2623,1267,-10028,-9804,-4782
1131,5,3208,-1602,1982,-9512,-9786,-5670
1132,5,5,117,1714,-8798,-9645,-6515
1133,5,-1491,2480,1795,-8296,-9557,-6854
1134,5,-1047,2891,1765,-8174,-9489,-6834
1135,5,-571,2575,1665,-8122,-9460,-6787
1136,5,-191,1581,1536,-8126,-9447,-6762
1137,5,47,633,1405,-8131,-9438,-6753
1138,5,207,0,1342,-8119,-9422,-6772
1139,5,313,-368,1338,-8103,-9406,-6784
1140,5,382,-617,1360,-8089,-9390,-6787
1141,5,428,-816,1329,-8073,-9372,-6787
1142,5,483,-958,1293,-8063,-9355,-6789
1143,5,533,-936,1266,-8058,-9341,-6788
1144,5,560,-596,1255,-8075,-9345,-6757
1145,5,106,1348,1165,-8405,-9533,-6445
1146,5,-883,2213,1450,-8820,-9718,-6098
1147,5,-2025,2690,1689,-9382,-9894,-5499
1148,5,-2515,2597,1840,-10011,-9985,-4582
1149,5,-1283,530,1220,-10537,-9932,-3700
1150,5,1355,-1874,609,-10752,-9850,-3324
1151,5,3716,-2688,853,-10718,-9794,-3367
1152,5,5097,-2976,1105,-10581,-9733,-3543
1153,5,5217,-3405,1130,-10344,-9726,-3991
1154,5,4114,-2855,1621,-9920,-9740,-4756
1155,5,1883,-1355,1950,-9328,-9664,-5627
1156,5,-1124,642,2071,-8748,-9603,-6459
1157,5,-1694,2271,2119,-8382,-9566,-6797
1158,5,-1162,2472,2215,-8261,-9535,-6824
1159,5,-708,2101,2188,-8219,-9521,-6778
1160,5,-355,984,2033,-8240,-9511,-6752
1161,5,-96,-45,1706,-8238,-9488,-6747
1162,5,128,-635,1430,-8216,-9462,-6754
1163,5,283,-948,1289,-8192,-9440,-6775
1164,5,403,-1136,1246,-8178,-9426,-6787
1165,5,463,-1338,1249,-8165,-9411,-6795
1166,5,552,-1258,1241,-8153,-9396,-6790
1167,5,547,-359,1304,-8185,-9413,-6698
1168,5,232,575,1495,-8362,-9495,-6502
1169,5,-479,1241,1555,-8655,-9608,-6229
1170,5,-1377,1840,1586,-9062,-9736,-5749
1171,5,-2042,1965,1802,-9575,-9839,-5029
1172,5,-2073,1686,1988,-10140,-9848,-4101
1173,5,-241,-825,1114,-10570,-9736,-3315
1174,5,2318,-2678,637,-10707,-9639,-3110
1175,5,4596,-3213,783,-10629,-9579,-3236
1176,5,5950,-3304,946,-10496,-9518,-3386
1177,5,6229,-3550,816,-10302,-9521,-3725
1178,5,5516,-3114,1233,-9971,-9592,-4324
1179,5,3574,-2147,2041,-9494,-9609,-5119
1180,5,468,-644,1928,-8860,-9522,-5825
1181,5,-1292,1894,1755,-8299,-9447,-6214
1182,5,-603,2335,1820,-8090,-9371,-6230
1183,5,-243,1357,1584,-8090,-9347,-6253
1184,5,-18,408,1402,-8084,-9329,-6257
1185,5,181,-173,1245,-8061,-9310,-6273
1186,5,310,-493,1224,-8048,-9297,-6287
1187,5,378,-748,1278,-8043,-9285,-6290
1188,5,440,-986,1257,-8033,-9267,-6289
1189,5,480,-1122,1215,-8021,-9249,-6291
1190,5,548,-983,1192,-8013,-9235,-6285
1191,5,571,-491,1160,-8052,-9247,-6244
1192,5,351,333,1294,-8177,-9301,-6125
1193,5,-233,1162,1469,-8434,-9400,-5876
1194,5,-1146,1724,1724,-8840,-9515,-5414
1195,5,-1820,2057,1886,-9352,-9605,-4710
1196,5,-1920,2012,1908,-9941,-9617,-3811
1197,5,-378,-610,1047,-10448,-9519,-3093
1198,5,1878,-2743,460,-10600,-9431,-2883
1199,5,4204,-3212,760,-10544,-9379,-2955
1200,5,5456,-3535,804,-10414,-9314,-3079
1201,5,5648,-3864,754,-10180,-9323,-3465
1202,5,4870,-3262,1270,-9770,-9375,-4144
1203,5,2852,-1848,1935,-9229,-9358,-4874
1204,5,175,-104,1946,-8603,-9272,-5445
1205,5,-1293,2004,1574,-8054,-9193,-5745
1206,5,-947,2945,1538,-7877,-9135,-5842
1207,5,-571,2837,1517,-7834,-9105,-5830
1208,5,-218,1728,1304,-7874,-9099,-5829
1209,5,1,622,1144,-7894,-9093,-5819
1210,5,170,-110,1096,-7877,-9077,-5839
1211,5,276,-392,1054,-7849,-9058,-5850
1212,5,329,-497,1079,-7836,-9048,-5854
1213,5,369,-666,1104,-7832,-9039,-5855
1214,5,401,-816,1071,-7830,-9028,-5853
1215,5,462,-740,1016,-7831,-9021,-5846
1216,5,478,-337,968,-7870,-9037,-5803
1217,5,395,408,866,-7984,-9093,-5719
1218,5,-3,1096,855,-8238,-9204,-5602
1219,5,-730,1827,1098,-8598,-9341,-5350
1220,5,-1561,2197,1481,-9069,-9456,-4841
1221,5,-2181,2505,1901,-9604,-9494,-4126
1222,5,-1525,1303,1574,-10186,-9419,-3306
1223,5,603,-1318,381,-10492,-9256,-2882
1224,5,3172,-2788,29,-10521,-9179,-2861
1225,5,5261,-2922,527,-10423,-9115,-2968
1226,5,6136,-3488,327,-10298,-9046,-3123
1227,5,6126,-3615,56,-10062,-9098,-3536
1228,5,4995,-2368,644,-9695,-9240,-4155
1229,5,2584,-1727,1669,-9243,-9358,-4939
1230,5,-706,123,1706,-8590,-9341,-5501
1231,5,-1307,2234,1411,-8142,-9291,-5570
1232,5,-841,2619,1299,-8038,-9243,-5582
1233,5,-489,1883,1146,-8047,-9237,-5546
1234,5,-192,788,931,-8066,-9231,-5544
1235,5,-22,-18,854,-8064,-9224,-5562
1236,5,51,-390,866,-8044,-9210,-5582
1237,5,144,-589,879,-8027,-9196,-5592
1238,5,197,-748,860,-8015,-9183,-5596
1239,5,272,-915,781,-8006,-9169,-5601
1240,5,334,-867,713,-8004,-9162,-5609
1241,5,378,-344,595,-8036,-9179,-5598
1242,5,215,446,703,-8168,-9246,-5533
1243,5,-333,1153,768,-8427,-9352,-5362
1244,5,-1098,1570,899,-8790,-9460,-5066
1245,5,-1777,1898,1197,-9245,-9543,-4556
1246,5,-2162,2150,1585,-9768,-9549,-3833
1247,5,-1164,1045,1409,-10313,-9429,-2973
1248,5,952,-1539,148,-10624,-9261,-2578
1249,5,3391,-2905,-100,-10671,-9205,-2551
1250,5,5422,-3238,375,-10591,-9147,-2646
1251,5,6294,-3656,371,-10464,-9083,-2784
1252,5,6116,-3971,227,-10226,-9118,-3187
1253,5,4688,-3091,1123,-9775,-9187,-3832
1254,5,2399,-1732,2084,-9152,-9175,-4704
1255,5,-815,553,2251,-8458,-9114,-5465
1256,5,-1308,2424,1994,-8014,-9060,-5722
1257,5,-849,2425,1803,-7879,-9005,-5789
1258,5,-395,1689,1635,-7822,-8984,-5817
1259,5,-96,883,1552,-7810,-8971,-5825
1260,5,125,71,1383,-7811,-8964,-5830
1261,5,265,-494,1257,-7811,-8956,-5842
1262,5,391,-648,901,-7824,-8960,-5857
1263,5,416,-690,337,-7918,-9017,-5952
1264,5,230,-749,-78,-8067,-9132,-6052
1265,5,-119,-895,-264,-8265,-9292,-6141
1266,5,-605,-895,-285,-8470,-9448,-6218
1267,5,-750,-1333,-528,-8717,-9569,-6439
1268,5,-817,-1874,-831,-8840,-9625,-6567
1269,5,-786,-1277,-1422,-8838,-9633,-6586
1270,5,-759,-851,-1601,-8878,-9665,-6577
1271,5,-749,-525,-1756,-8908,-9690,-6537
1272,5,-684,-197,-1877,-8929,-9711,-6529
1273,5,-677,30,-1934,-8944,-9728,-6528
1274,5,-652,230,-1953,-8963,-9749,-6521
1275,5,-648,369,-1979,-8984,-9769,-6525
1276,5,-627,472,-1976,-9005,-9790,-6530
1277,5,-614,579,-1977,-9027,-9811,-6537
1278,5,-597,637,-1971,-9049,-9832,-6544
1279,5,-576,697,-1969,-9069,-9853,-6549
1280,5,-567,741,-1951,-9089,-9875,-6554
1281,5,-552,780,-1930,-9107,-9893,-6559
1282,5,-534,807,-1911,-9124,-9913,-6567
1283,5,-525,823,-1911,-9143,-9932,-6573
1284,5,-511,837,-1890,-9161,-9951,-6579
1285,5,-505,855,-1887,-9179,-9970,-6586
1286,5,-491,857,-1882,-9197,-9989,-6594
1287,5,-488,865,-1880,-9215,-10008,-6600
1288,5,-482,860,-1873,-9234,-10028,-6608
1289,5,-459,871,-1833,-9253,-10048,-6614
1290,5,-455,884,-1832,-9271,-10066,-6621
1291,5,-439,881,-1810,-9288,-10086,-6628
1292,5,-432,891,-1813,-9307,-10104,-6637
1293,5,-425,883,-1796,-9325,-10124,-6649
1294,5,-416,884,-1796,-9345,-10144,-6659
1295,5,-403,881,-1791,-9362,-10162,-6666
1296,5,-398,874,-1784,-9378,-10179,-6671
1297,5,-395,874,-1776,-9394,-10196,-6674
1298,6,6394,-1427,499,-11160,-9962,-3529
1299,6,7787,-1925,968,-11064,-9879,-3620
1300,6,7886,-2532,1031,-10926,-9834,-3864
1301,6,7138,-2850,1316,-10660,-9859,-4457
1302,6,5112,-1959,2121,-10172,-9844,-5328
1303,6,2386,-265,2577,-9529,-9696,-6264
1304,6,-652,2032,2443,-8906,-9560,-6967
1305,6,-655,3416,2616,-8654,-9513,-7165
1306,6,-310,3036,2665,-8588,-9474,-7148
1307,6,23,2138,2476,-8581,-9461,-7103
1308,6,235,1114,2211,-8582,-9448,-7075
1309,6,401,290,2043,-8575,-9430,-7070
1310,6,508,-228,1881,-8555,-9406,-7065
1311,6,589,-459,1762,-8534,-9385,-7065
1312,6,645,-604,1744,-8525,-9370,-7064
1313,6,695,-490,1739,-8526,-9361,-7047
1314,6,689,203,1684,-8584,-9388,-6956
1315,6,470,1197,1587,-8764,-9493,-6726
1316,6,-293,2225,1716,-9111,-9671,-6359
1317,6,-1393,3089,1792,-9648,-9910,-5746
1318,6,-2504,3445,2265,-10325,-10103,-4819
1319,6,-2031,1573,1895,-11004,-10115,-3693
1320,6,284,-1507,731,-11338,-10016,-3160
1321,6,3031,-2844,710,-11361,-9979,-3138
1322,6,5352,-3068,1053,-11253,-9899,-3246
1323,6,6428,-3555,981,-11100,-9835,-3460
1324,6,6391,-3624,1155,-10843,-9845,-3930
1325,6,5470,-2711,1776,-10412,-9836,-4636
1326,6,3578,-744,2334,-9843,-9735,-5404
1327,6,1466,986,2568,-9294,-9627,-6089
1328,6,-81,3107,2547,-8708,-9500,-6590
1329,6,88,2537,2270,-8658,-9463,-6581
1330,6,252,1557,1931,-8659,-9444,-6580
1331,6,363,669,1627,-8660,-9434,-6579
1332,6,416,22,1476,-8653,-9423,-6585
1333,6,443,-350,1403,-8634,-9406,-6593
1334,6,462,-617,1326,-8619,-9389,-6594
1335,6,472,-763,1248,-8605,-9373,-6593
1336,6,491,-875,1200,-8596,-9360,-6590
1337,6,506,-893,1179,-8587,-9348,-6591
1338,6,536,-188,1084,-8611,-9355,-6567
1339,6,353,916,1188,-8755,-9435,-6439
1340,6,-395,1676,1477,-9059,-9565,-6190
1341,6,-1477,2295,1624,-9498,-9710,-5626
1342,6,-2408,2866,1887,-10078,-9842,-4773
1343,6,-1958,2023,1686,-10759,-9883,-3750
1344,6,96,-627,919,-11192,-9797,-3082
1345,6,2621,-2388,633,-11304,-9728,-2911
1346,6,4951,-2811,917,-11228,-9655,-3003
1347,6,6547,-3066,1155,-11122,-9569,-3109
1348,6,6924,-3496,901,-10954,-9519,-3344
1349,6,6363,-3348,951,-10635,-9557,-3891
1350,6,4521,-2377,1872,-10146,-9590,-4689
1351,6,1983,-644,2529,-9512,-9496,-5475
1352,6,-734,1491,2148,-8878,-9366,-6047
1353,6,-671,2894,1765,-8572,-9305,-6101
1354,6,-368,2790,1730,-8487,-9259,-6148
1355,6,-31,2099,1690,-8479,-9243,-6134
1356,6,163,1192,1515,-8493,-9232,-6124
1357,6,311,363,1420,-8499,-9221,-6124
1358,6,400,-184,1367,-8489,-9204,-6130
1359,6,457,-481,1338,-8471,-9185,-6140
1360,6,523,-664,1322,-8453,-9166,-6147
1361,6,562,-748,1304,-8438,-9149,-6147
1362,6,613,-557,1201,-8437,-9140,-6135
1363,6,615,56,1134,-8506,-9173,-6084
1364,6,432,860,1171,-8672,-9259,-5957
1365,6,-1121,1931,1473,-9356,-9519,-5320
1366,6,-2024,2432,1724,-9918,-9629,-4655
1367,6,-1862,1727,1878,-10493,-9605,-3836
1368,6,-242,-445,1172,-10952,-9496,-3090
1369,6,2130,-2685,513,-11104,-9393,-2871
1370,6,4506,-2918,838,-11029,-9323,-2962
1371,6,5987,-3210,952,-10919,-9248,-3069
1372,6,6178,-3590,776,-10725,-9238,-3373
1373,6,5452,-3264,1060,-10370,-9295,-3948
1374,6,3586,-2095,1829,-9846,-9309,-4682
1375,6,835,-404,1954,-9188,-9216,-5370
1376,6,-1158,2397,1594,-8595,-9133,-5802
1377,6,-847,2874,1729,-8464,-9106,-5879
1378,6,-493,2251,1597,-8411,-9074,-5828
1379,6,-195,1434,1452,-8407,-9057,-5808
1380,6,0,694,1239,-8404,-9045,-5794
1381,6,149,88,1168,-8408,-9037,-5799
1382,6,245,-285,1142,-8401,-9027,-5803
1383,6,311,-498,1147,-8391,-9015,-5808
1384,6,349,-630,1146,-8383,-9002,-5807
1385,6,386,-742,1116,-8374,-8988,-5807
1386,6,439,-686,1075,-8371,-8978,-5799
1387,6,484,-247,938,-8388,-8986,-5759
1388,6,346,630,858,-8483,-9045,-5646
1389,6,-85,1387,949,-8728,-9162,-5490
1390,6,-822,1917,1134,-9086,-9294,-5229
1391,6,-1591,2222,1355,-9569,-9411,-4716
1392,6,-1937,2436,1678,-10135,-9463,-4023
1393,6,-1052,881,1316,-10708,-9396,-3217
1394,6,1291,-1944,299,-10970,-9272,-2855
1395,6,3704,-2702,539,-10960,-9220,-2873
1396,6,5539,-2769,928,-10861,-9148,-2969
1397,6,6114,-3140,934,-10717,-9103,-3168
1398,6,5755,-3107,1107,-10457,-9128,-3559
1399,6,4752,-2200,1618,-10019,-9119,-4096
1400,6,3033,-680,1978,-9413,-9024,-4709
1401,6,44,960,1746,-8756,-8930,-5335
1402,6,-784,2544,1600,-8348,-8893,-5535
1403,6,-517,2739,1493,-8256,-8843,-5560
1404,6,-244,2219,1333,-8214,-8819,-5548
1405,6,-41,1271,1190,-8219,-8805,-5542
1406,6,98,449,1031,-8225,-8794,-5538
1407,6,196,-78,985,-8217,-8782,-5548
1408,6,279,-404,964,-8205,-8768,-5558
1409,6,322,-602,956,-8193,-8756,-5568
1410,6,347,-720,967,-8182,-8745,-5576
1411,6,344,-788,979,-8176,-8735,-5580
1412,6,385,-787,927,-8176,-8728,-5583
1413,6,408,-364,795,-8197,-8737,-5574
1414,6,291,575,712,-8310,-8801,-5506
1415,6,-300,1458,777,-8579,-8921,-5360
1416,6,-1359,2103,905,-9018,-9062,-5018
1417,6,-2353,2400,1199,-9585,-9173,-4420
1418,6,-2718,2329,1467,-10224,-9196,-3633
1419,6,-1090,-354,564,-10753,-9077,-2956
1420,6,3738,-2716,451,-10823,-8926,-2893
1421,6,5349,-2913,683,-10698,-8852,-3007
1422,6,5688,-3251,762,-10510,-8861,-3296
1423,6,5171,-2927,1322,-10170,-8922,-3814
1424,6,3593,-2013,1986,-9656,-8913,-4488
1425,6,979,-632,1753,-9008,-8830,-5134
1426,6,-1365,1489,1523,-8410,-8789,-5604
1427,6,-1130,2485,1579,-8196,-8762,-5680
1428,6,-708,2444,1651,-8133,-8735,-5672
1429,6,-322,1426,1535,-8153,-8723,-5658
1430,6,-63,413,1346,-8164,-8711,-5639
1431,6,131,-298,1204,-8156,-8694,-5646
1432,6,269,-665,1171,-8141,-8678,-5656
1433,6,341,-820,1159,-8123,-8661,-5657
1434,6,418,-979,1140,-8116,-8647,-5659
1435,6,480,-1130,1112,-8108,-8633,-5664
1436,6,496,-1238,1108,-8096,-8617,-5671
1437,6,525,-1215,1079,-8082,-8603,-5673
1438,6,582,-1010,1049,-8083,-8597,-5661
1439,6,570,-218,880,-8123,-8617,-5620
1440,6,267,1066,720,-8305,-8730,-5482
1441,6,-800,2064,806,-8689,-8907,-5302
1442,6,-2283,2497,1180,-9241,-9079,-4828
1443,6,-3591,2823,1736,-9888,-9148,-4072
1444,6,-2991,996,1154,-10545,-9058,-3247
1445,6,-593,-1699,-121,-10880,-8927,-2854
1446,6,2185,-2986,-337,-10911,-8878,-2855
1447,6,4520,-3133,174,-10811,-8815,-2965
1448,6,5641,-3424,348,-10689,-8743,-3087
1449,6,5765,-3777,191,-10466,-8747,-3401
1450,6,4675,-3224,723,-10032,-8809,-3990
1451,6,2580,-1797,1790,-9410,-8810,-4740
1452,6,-538,367,2036,-8714,-8729,-5435
1453,6,-1113,2674,1757,-8291,-8693,-5607
1454,6,-633,2687,1554,-8205,-8662,-5578
1455,6,-302,2149,1483,-8185,-8652,-5572
1456,6,-87,1252,1375,-8198,-8647,-5577
1457,6,76,409,1307,-8202,-8638,-5585
1458,6,162,-102,1199,-8188,-8619,-5600
1459,6,249,-309,1095,-8176,-8608,-5606
1460,6,308,-563,1078,-8170,-8600,-5618
1461,6,321,-740,1113,-8158,-8585,-5627
1462,6,342,-836,1059,-8144,-8568,-5632
1463,6,390,-903,959,-8133,-8556,-5639
1464,6,452,-698,840,-8133,-8553,-5636
1465,6,442,92,623,-8189,-8596,-5593
1466,6,151,1061,718,-8376,-8706,-5495
1467,6,-612,1677,876,-8700,-8842,-5336
1468,6,-1454,2121,1006,-9137,-8974,-4954
1469,6,-2084,2445,1297,-9663,-9078,-4404
1470,6,-2230,2333,1631,-10279,-9090,-3617
1471,6,-442,-354,504,-10739,-8940,-3059
1472,6,2172,-2155,-35,-10866,-8853,-2920
1473,6,4527,-2435,336,-10800,-8796,-2997
1474,6,6070,-2566,615,-10694,-8724,-3085
1475,6,6346,-2922,601,-10547,-8710,-3298
1476,6,5843,-2610,1078,-10253,-8756,-3715
1477,6,4483,-1764,1862,-9783,-8773,-4328
1478,6,2482,-556,2149,-9152,-8700,-5010
1479,6,-755,1357,1944,-8505,-8648,-5596
1480,6,-571,2614,1852,-8278,-8647,-5631
1481,6,-326,2158,1765,-8224,-8615,-5652
1482,6,-93,1329,1587,-8219,-8608,-5646
1483,6,46,519,1407,-8218,-8599,-5641
1484,6,152,-117,1288,-8212,-8586,-5655
1485,6,214,-552,1150,-8201,-8568,-5663
1486,6,277,-854,1017,-8183,-8551,-5682
1487,6,312,-1044,963,-8167,-8538,-5697
1488,6,340,-1142,935,-8151,-8523,-5707
1489,6,364,-1198,934,-8141,-8512,-5715
1490,6,377,-1273,930,-8135,-8498,-5721
1491,6,376,-1324,914,-8125,-8484,-5726
1492,6,395,-1032,903,-8128,-8475,-5731
1493,6,354,128,823,-8192,-8504,-5683
1494,6,-151,1341,898,-8428,-8619,-5494
1495,6,-1434,2343,892,-8871,-8791,-5086
1496,6,-3060,2916,1356,-9518,-8977,-4406
1497,6,-3443,2301,1598,-10263,-9033,-3570
1498,6,-1702,-469,472,-10758,-8915,-2994
1499,6,1133,-2391,-147,-10909,-8845,-2848
1500,6,3471,-2850,58,-10832,-8795,-2954
1501,6,4232,-3221,35,-10666,-8778,-3175
1502,6,3971,-3101,157,-10304,-8844,-3702
1503,6,1905,-2196,1364,-9737,-8927,-4489
1504,6,-1024,-475,1785,-9037,-8898,-5321
1505,6,-2258,2081,1459,-8487,-8860,-5600
1506,6,-1411,2475,1218,-8384,-8810,-5619
1507,6,-819,1995,1184,-8329,-8796,-5580
1508,6,-406,1033,1217,-8332,-8787,-5601
1509,6,-96,168,1173,-8331,-8778,-5614
1510,6,97,-403,1138,-8321,-8761,-5627
1511,6,246,-755,1052,-8315,-8746,-5640
1512,6,376,-874,701,-8325,-8746,-5661
1513,6,455,-740,112,-8401,-8801,-5739
1514,6,-78,-999,-612,-8737,-9095,-5967
1515,6,-565,-1128,-492,-8926,-9268,-6042
1516,6,-822,-1434,-494,-9076,-9378,-6150
1517,6,-832,-1640,-843,-9162,-9428,-6275
1518,6,-843,-1206,-1357,-9168,-9438,-6324
1519,6,-835,-838,-1658,-9191,-9466,-6353
1520,6,-844,-578,-1874,-9205,-9483,-6393
1521,6,-822,-435,-2039,-9228,-9506,-6419
1522,6,-816,-282,-2148,-9246,-9526,-6446
1523,6,-804,-184,-2238,-9262,-9545,-6462
1524,6,-785,-75,-2271,-9274,-9566,-6467
1525,6,-767,18,-2285,-9288,-9586,-6482
1526,6,-757,85,-2291,-9303,-9606,-6493
1527,6,-752,125,-2290,-9319,-9627,-6509
1528,6,-739,147,-2296,-9337,-9647,-6528
1529,6,-736,177,-2282,-9353,-9667,-6546
1530,6,-724,203,-2293,-9367,-9686,-6561
1531,6,-710,227,-2290,-9381,-9707,-6575
1532,6,-700,253,-2271,-9396,-9726,-6588
1533,6,-710,280,-2241,-9408,-9745,-6605
1534,6,-706,287,-2221,-9420,-9762,-6626
1535,6,-702,296,-2216,-9430,-9776,-6646
1536,6,-673,295,-2178,-9437,-9789,-6665
1537,6,-681,269,-2171,-9446,-9803,-6684
1538,6,-668,272,-2132,-9455,-9817,-6702
1539,6,-634,257,-2097,-9466,-9831,-6715
1540,6,-637,240,-2063,-9477,-9845,-6728
1541,6,-618,244,-2019,-9486,-9860,-6737
1542,6,-614,222,-2012,-9494,-9873,-6739
1543,6,-599,212,-1973,-9501,-9889,-6740
1544,6,-587,229,-1953,-9509,-9904,-6737
