,0,1,2,3,4,5,6
0,0,-4366,1385,-1194,2808,-6597,2433
1,0,-4246,-968,-1024,1779,-5996,2200
2,0,-2753,-2085,-2967,1667,-5401,1542
3,0,-1133,-1675,-4821,2060,-5213,1108
4,0,118,472,-5456,2469,-5475,772
5,0,657,2614,-4064,2770,-6003,546
6,0,1008,3938,-1917,2970,-6366,475
7,0,1186,3992,-130,2971,-6480,381
8,0,1579,3552,-130,2921,-6488,375
9,0,1749,3085,-1034,2947,-6530,387
10,0,1463,2952,-1834,3042,-6631,369
11,0,1059,2606,-2139,3112,-6768,306
12,0,624,2190,-2229,3214,-6947,252
13,0,33,1684,-2197,3227,-7130,26
14,0,-416,887,-1922,3283,-7237,-82
15,0,-476,733,-2487,3288,-7250,-76
16,0,-561,348,-2942,3263,-7256,-171
17,0,-664,56,-3396,3343,-7283,-154
18,0,-716,-204,-3745,3415,-7321,-145
19,0,-769,-457,-3976,3473,-7371,-156
20,0,-792,-601,-4091,3525,-7426,-158
21,0,-803,-790,-4135,3535,-7472,-179
22,0,-795,-895,-4088,3546,-7512,-196
23,0,-815,-1014,-4150,3555,-7540,-217
24,0,-828,-1012,-4219,3583,-7573,-228
25,0,-782,-1014,-4279,3600,-7607,-243
26,0,-758,-1030,-4325,3610,-7644,-264
27,0,-735,-1064,-4316,3618,-7684,-283
28,0,-727,-1119,-4271,3629,-7722,-310
29,0,-713,-1145,-4247,3646,-7756,-331
30,0,-696,-1169,-4238,3657,-7788,-359
31,0,-671,-1175,-4247,3669,-7817,-385
32,0,-642,-1168,-4250,3682,-7849,-402
33,0,-632,-1172,-4242,3692,-7881,-422
34,0,-613,-1188,-4237,3697,-7912,-442
35,0,-593,-1196,-4205,3704,-7946,-464
36,0,-570,-1185,-4187,3710,-7976,-479
37,0,-554,-1158,-4179,3717,-8008,-498
38,0,-540,-1121,-4156,3720,-8040,-517
39,0,-528,-1106,-4128,3728,-8073,-535
40,0,-521,-1101,-4108,3737,-8104,-550
41,0,-498,-1096,-4101,3752,-8134,-557
42,0,-480,-1079,-4086,3765,-8165,-575
43,1,2900,1888,2888,3314,-9782,-6128
44,1,3773,2983,3288,3419,-9739,-5963
45,1,4315,3236,3720,3398,-9724,-5856
46,1,4845,3061,3981,3284,-9701,-5700
47,1,5180,2790,4140,3047,-9653,-5539
48,1,5437,2741,4159,2756,-9595,-5295
49,1,5647,2646,3883,2509,-9543,-4856
50,1,5978,2380,3523,2313,-9532,-4310
51,1,6310,2234,3518,2314,-9562,-3657
52,1,6531,2433,3624,2380,-9590,-2936
53,1,6702,2528,3774,2342,-9602,-2175
54,1,7329,2394,3808,2244,-9548,-1371
55,1,8557,1785,3810,2168,-9424,-572
56,1,9982,-52,3181,1948,-9250,-118
57,1,11307,-1288,2006,1881,-9069,9
58,1,12337,-1555,849,1855,-8932,-62
59,1,13009,-1185,45,1851,-8855,-118
60,1,13686,-1031,-620,1860,-8792,-122
61,1,13986,-970,-971,1866,-8734,-172
62,1,13939,-1180,-1169,1868,-8715,-321
63,1,13456,-1181,-1191,1898,-8780,-649
64,1,12518,-588,-1234,2129,-8908,-1038
65,1,10854,273,-1114,2572,-9126,-1512
66,1,8404,1595,-971,3383,-9410,-1979
67,1,4713,2681,-356,4064,-9718,-2705
68,1,2242,3346,22,4642,-9945,-3175
69,1,1469,3123,-122,4938,-10061,-3212
70,1,1264,2670,-404,5070,-10114,-3182
71,1,1021,1973,-971,5049,-10126,-3199
72,1,797,1312,-1688,4927,-10128,-3267
73,1,797,775,-2277,4848,-10140,-3305
74,1,667,376,-2541,4778,-10159,-3379
75,1,615,272,-2726,4795,-10181,-3390
76,1,588,149,-2822,4795,-10202,-3410
77,1,558,129,-2823,4770,-10218,-3441
78,1,396,837,-2344,4567,-10229,-3485
79,1,-192,-703,-2056,3528,-10146,-3926
80,1,-739,-2736,-1836,3478,-9962,-4088
81,1,-1800,-3516,-1200,3825,-9686,-4398
82,1,-2655,-3102,-939,4309,-9347,-4798
83,1,-2009,-1917,-1040,4820,-9009,-5020
84,1,-42,-201,-1773,5237,-8771,-5085
85,1,2343,660,-1881,5331,-8671,-5061
86,1,4196,744,-1177,5349,-8645,-4981
87,1,5372,764,-50,5401,-8639,-4780
88,1,5904,1207,965,5464,-8634,-4353
89,1,6192,2018,1742,5438,-8650,-3736
90,1,6532,2869,2342,5389,-8669,-2944
91,1,6954,3365,2767,5262,-8671,-2087
92,1,7684,2990,2797,5040,-8631,-1274
93,1,8570,1680,2705,4802,-8549,-698
94,1,9739,-72,2300,4581,-8436,-465
95,1,11081,-1036,1633,4486,-8322,-440
96,1,11983,-966,838,4512,-8196,-437
97,1,12566,-589,-59,4534,-8062,-405
98,1,13103,-460,-917,4509,-7945,-407
99,1,13477,-282,-1448,4510,-7880,-398
100,1,13393,-311,-1795,4502,-7842,-453
101,1,12888,-423,-2251,4578,-7909,-578
102,1,12065,-252,-2169,4871,-8145,-783
103,1,10535,564,-1439,5417,-8465,-1111
104,1,8116,1634,-541,6106,-8790,-1506
105,1,4986,2715,-162,6920,-9085,-1796
106,1,2669,3383,-370,7560,-9278,-2048
107,1,1777,3330,-821,7813,-9386,-2122
108,1,1418,2832,-1391,7926,-9442,-2033
109,1,1068,1896,-1887,7963,-9477,-2045
110,1,854,1180,-2588,7940,-9509,-2154
111,1,711,655,-3114,8026,-9567,-2135
112,1,583,505,-3393,8187,-9628,-2074
113,1,507,202,-3542,8268,-9682,-2026
114,1,390,-49,-3844,8296,-9722,-2023
115,1,319,-482,-4175,8320,-9764,-2066
116,1,303,-409,-4263,8438,-9819,-2023
117,1,278,-398,-4347,8501,-9866,-2062
118,1,334,-438,-4443,8569,-9915,-2116
119,1,425,-365,-4505,8661,-9973,-2146
120,1,365,-410,-4598,8708,-10023,-2180
121,1,343,-414,-4754,8730,-10064,-2216
122,1,398,-495,-4893,8742,-10100,-2262
123,1,412,-554,-4977,8782,-10139,-2295
124,1,466,-610,-5039,8813,-10175,-2329
125,1,487,-633,-5042,8859,-10214,-2365
126,1,508,-656,-5046,8897,-10250,-2405
127,1,526,-644,-5005,8937,-10287,-2445
128,1,528,-644,-4994,8973,-10323,-2488
129,1,540,-650,-4983,9006,-10359,-2532
130,1,582,-634,-4952,9052,-10396,-2562
131,1,602,-634,-4948,9085,-10434,-2569
132,1,652,-688,-4901,9103,-10471,-2641
133,1,629,-615,-4984,9140,-10505,-2704
134,1,623,-611,-4949,9183,-10541,-2757
135,1,655,-584,-4938,9233,-10575,-2791
136,1,679,-567,-4841,9290,-10610,-2808
137,1,698,-630,-4814,9327,-10645,-2844
138,1,689,-625,-4769,9374,-10681,-2887
139,1,712,-607,-4759,9413,-10714,-2926
140,1,740,-608,-4737,9453,-10748,-2969
141,2,-782,5695,800,9957,-13064,-1332
142,2,708,3940,-191,8410,-12802,725
143,2,2972,1392,-736,7545,-12574,1695
144,2,5941,-499,-359,7325,-12471,1838
145,2,8694,-866,611,7084,-12392,1512
146,2,10685,-1643,888,6981,-12308,1358
147,2,12022,-1799,1029,6967,-12260,1241
148,2,13067,-1958,1282,6911,-12220,1128
149,2,13602,-1902,1713,6887,-12189,978
150,2,13637,-2123,2262,6820,-12170,660
151,2,13573,-2898,2840,6483,-12195,-112
152,2,13071,-3599,3562,6243,-12318,-1357
153,2,11791,-3731,4222,6345,-12519,-3124
154,2,10349,-3518,5423,7030,-12658,-5210
155,2,8604,-2171,6250,8141,-12575,-7047
156,2,7221,-303,6448,9453,-12449,-8230
157,2,7341,1130,6460,10026,-12382,-8421
158,2,7584,1509,6308,9798,-12351,-8155
159,2,7702,1370,6331,9620,-12337,-7846
160,2,7716,1381,6326,9334,-12318,-7383
161,2,7715,1791,6123,8967,-12313,-6637
162,2,7687,2670,5924,8726,-12352,-5490
163,2,7757,3284,5690,8526,-12419,-3925
164,2,8209,3584,5520,8419,-12456,-2171
165,2,9133,3378,5076,8322,-12420,-377
166,2,10290,2298,4736,8261,-12357,1032
167,2,11508,919,4580,8234,-12268,1831
168,2,12837,-553,4274,8050,-12170,1989
169,2,13924,-1194,3519,7955,-12093,1924
170,2,14548,-1263,2507,7838,-12021,1820
171,2,15223,-1337,1633,7788,-11970,1749
172,2,15559,-1294,1180,7766,-11937,1642
173,2,15348,-1294,956,7752,-11928,1459
174,2,14856,-1261,655,7932,-12011,1195
175,2,13989,-801,699,8409,-12237,674
176,2,12687,92,1458,9212,-12542,-297
177,2,10469,1474,2372,10151,-12793,-1671
178,2,7428,2484,2532,11223,-12984,-3056
179,2,4506,3315,2199,12157,-13087,-4382
180,2,3224,3403,1822,12614,-13138,-5103
181,2,2789,2869,1359,12725,-13180,-5159
182,2,2385,1928,1050,12734,-13194,-5157
183,2,2085,1138,519,12657,-13172,-5181
184,2,1850,701,-11,12590,-13154,-5145
185,2,1774,421,-415,12523,-13143,-5045
186,2,1696,191,-701,12488,-13145,-5032
187,2,1599,-25,-786,12491,-13155,-5067
188,2,1555,-197,-759,12510,-13160,-5103
189,2,1502,-182,-716,12530,-13158,-5136
190,2,1464,-131,-722,12518,-13158,-5137
191,2,1463,-114,-688,12525,-13162,-5147
192,2,1438,-184,-594,12511,-13158,-5147
193,2,1455,-185,-622,12490,-13147,-5162
194,2,1450,-131,-753,12487,-13145,-5196
195,2,1457,-91,-776,12505,-13157,-5224
196,2,1427,-146,-674,12519,-13167,-5237
197,2,1425,-210,-580,12523,-13165,-5250
198,2,1405,-192,-551,12508,-13155,-5268
199,2,1433,-111,-594,12500,-13147,-5277
200,2,1414,-103,-620,12498,-13147,-5290
201,2,1433,-111,-572,12493,-13151,-5265
202,2,1288,396,21,12444,-13147,-5148
203,2,535,2393,934,12042,-13136,-4119
204,2,-1362,4725,1505,10963,-13056,-1449
205,2,-1417,4301,831,9428,-12736,1337
206,2,523,2418,-123,8139,-12339,2818
207,2,3080,378,-516,7408,-12092,3375
208,2,5758,-1621,-162,7026,-11980,3271
209,2,8559,-2464,28,6858,-11927,2872
210,2,10585,-2693,361,6921,-11910,2736
211,2,11997,-2890,799,6925,-11886,2665
212,2,12645,-2979,1691,6981,-11887,2581
213,2,12604,-3988,2190,6639,-11930,1933
214,2,12446,-4493,2753,6561,-12108,943
215,2,11764,-4641,3560,6711,-12400,-540
216,2,10654,-4276,4818,7293,-12665,-2416
217,2,8804,-3433,5288,8266,-12787,-4508
218,2,6371,-1517,5552,9801,-12857,-6480
219,2,6625,609,7106,10178,-12818,-6773
220,2,6834,938,6708,9715,-12721,-6265
221,2,6981,954,6099,9439,-12692,-5552
222,2,6880,890,5937,9203,-12699,-4593
223,2,6538,1568,6209,9161,-12706,-3007
224,2,6632,2902,6017,9043,-12654,-1008
225,2,7728,3281,5168,8806,-12556,1042
226,2,9149,2425,4558,8586,-12422,2642
227,2,10585,827,4119,8520,-12309,3614
228,2,12031,-372,3891,8503,-12216,4005
229,2,13209,-1063,3592,8387,-12160,4033
230,2,14145,-1635,2698,8237,-12090,3968
231,2,14838,-1857,1665,8185,-12029,3935
232,2,15077,-1940,1044,8179,-12021,3771
233,2,14855,-1969,594,8283,-12100,3567
234,2,14222,-1804,500,8634,-12339,3282
235,2,12986,-1093,1118,9374,-12737,2813
236,2,11106,8,1934,10354,-13179,1808
237,2,8010,1237,2570,11535,-13580,290
238,2,3185,3094,2533,12992,-13917,-2493
239,2,2854,2299,2101,12978,-13936,-2363
240,2,2569,1647,1511,12992,-13937,-2298
241,2,2248,773,968,12968,-13938,-2370
242,2,2060,291,491,12980,-13936,-2443
243,2,1929,63,164,13011,-13940,-2527
244,2,1815,-230,-25,13019,-13941,-2549
245,2,1713,-381,-158,13030,-13940,-2618
246,2,1665,-450,-305,13044,-13941,-2671
247,2,1608,-534,-363,13061,-13944,-2706
248,2,1592,-617,-408,13079,-13944,-2761
249,2,1582,-667,-460,13091,-13942,-2834
250,2,1552,-683,-437,13102,-13940,-2899
251,2,1530,-598,-454,13122,-13934,-2898
252,2,1538,-721,-577,13096,-13927,-2878
253,2,1517,-905,-586,13120,-13925,-2979
254,2,1510,-823,-502,13149,-13923,-3072
255,2,1534,-674,-429,13162,-13918,-3113
256,2,1509,-650,-368,13148,-13914,-3127
257,2,1525,-633,-253,13119,-13904,-3139
258,2,1283,225,720,12979,-13874,-2738
259,2,478,2013,1403,12445,-13759,-1012
260,2,-951,4051,1007,11469,-13509,1985
261,2,-1039,3953,288,10237,-13059,4697
262,2,810,2123,-136,9022,-12564,5889
263,2,3342,-114,-244,8221,-12219,6225
264,2,5836,-1547,185,7796,-12077,6089
265,2,8395,-2934,324,7612,-12034,5834
266,2,10557,-3454,706,7628,-12037,5640
267,2,11858,-3672,1056,7648,-12027,5518
268,2,12159,-4055,1951,7747,-12053,5453
269,2,12254,-4859,3091,7596,-12150,4838
270,2,12226,-5434,3505,7455,-12393,3562
271,2,11354,-5028,4433,7811,-12819,2063
272,2,9962,-4413,6098,8540,-13225,132
273,2,8183,-3391,6378,9526,-13425,-2321
274,2,6577,-1428,6740,10787,-13509,-4508
275,2,6937,346,7008,10992,-13439,-4713
276,2,7302,726,6332,10544,-13347,-4245
277,2,7439,941,6366,10289,-13306,-3421
278,2,7055,1339,6588,9889,-13220,-1873
279,2,6852,1500,6794,9302,-13054,-65
280,2,7216,1568,6768,8864,-12816,1885
281,2,8000,1027,6677,8496,-12509,3553
282,2,9420,-54,5707,8161,-12139,4495
283,2,10963,-1250,4637,8045,-11889,4926
284,2,12415,-2072,3836,8044,-11776,5071
285,2,13652,-2182,3091,7882,-11700,4917
286,2,14598,-2467,1808,7689,-11612,4830
287,2,15206,-2432,847,7703,-11570,4904
288,2,15664,-2342,225,7677,-11542,4847
289,2,15912,-2353,-144,7676,-11524,4825
290,2,15410,-2407,-461,7750,-11570,4759
291,2,14679,-2237,-613,8018,-11796,4674
292,2,13456,-1989,152,8596,-12216,4569
293,2,11423,-1244,1353,9578,-12764,4166
294,2,8246,838,2265,10822,-13285,3485
295,2,4977,1864,2790,11770,-13691,2264
296,2,3333,2416,2682,12264,-13871,1439
297,2,2936,1656,2173,12282,-13886,1548
298,2,2620,1022,1679,12281,-13879,1553
299,2,2300,225,1068,12258,-13877,1443
300,2,2089,-319,512,12265,-13878,1334
301,2,1945,-609,145,12288,-13886,1261
302,2,1825,-799,-44,12323,-13897,1199
303,2,1743,-952,-148,12348,-13901,1146
304,2,1698,-1046,-272,12359,-13904,1073
305,2,1664,-1114,-378,12372,-13909,992
306,2,1628,-1187,-445,12385,-13912,939
307,2,1584,-1242,-499,12402,-13917,865
308,2,1576,-1289,-540,12421,-13924,783
309,2,1560,-1285,-580,12441,-13928,706
310,2,1545,-1315,-590,12460,-13933,641
311,2,1543,-1329,-601,12473,-13935,564
312,2,1544,-1316,-593,12489,-13938,483
313,2,1460,-1179,-245,12485,-13934,459
314,2,1109,-113,969,12253,-13836,957
315,2,55,1918,1737,11531,-13532,2442
316,2,-1305,3327,1503,10362,-13023,4229
317,2,-711,2955,597,9019,-12422,5422
318,2,1490,1442,-77,7901,-11896,5970
319,2,3877,-770,-274,7208,-11547,6183
320,2,5983,-2741,-112,6772,-11409,5957
321,2,8289,-4322,90,6546,-11387,5575
322,2,10313,-4867,306,6627,-11393,5466
323,2,11632,-4862,651,6668,-11391,5333
324,2,12482,-4949,981,6656,-11373,5226
325,2,12548,-5359,1661,6709,-11377,5164
326,2,12336,-6108,2460,6584,-11497,4580
327,2,12169,-6642,3032,6441,-11747,3665
328,2,11340,-6217,3685,6729,-12167,2675
329,2,10245,-5787,4727,7240,-12625,1325
330,2,9011,-5164,5467,8063,-13001,-423
331,2,6965,-3416,5372,9393,-13299,-2407
332,2,6927,-1503,6173,10237,-13420,-3250
333,2,7051,-868,6259,10092,-13353,-2856
334,2,7130,-868,6278,9928,-13296,-2423
335,2,6893,382,6209,9546,-13084,-425
336,2,6791,1412,6175,9220,-12918,1295
337,2,7304,2182,5811,8907,-12685,3128
338,2,8211,2067,5129,8626,-12410,4714
339,2,9492,1230,4692,8457,-12129,6000
340,2,10829,-288,4654,8353,-11905,6715
341,2,12084,-1553,4403,8293,-11758,6918
342,2,13480,-2373,3649,8174,-11676,6766
343,2,14336,-2485,2446,8060,-11620,6662
344,2,15079,-2715,1452,7964,-11578,6592
345,2,15568,-2576,863,7935,-11548,6538
346,2,15881,-2642,456,7890,-11504,6526
347,2,15630,-2981,207,7829,-11525,6326
348,2,14820,-2932,-326,8051,-11708,6097
349,2,13485,-2169,-127,8617,-12118,5916
350,2,11524,-1013,1049,9506,-12695,5663
351,2,8848,425,2334,10578,-13248,5258
352,2,5662,1866,3003,11573,-13706,4832
353,2,3831,2167,3276,12013,-13950,4222
354,2,3274,1402,2901,12108,-13991,4127
355,2,2864,971,2219,12155,-13985,4126
356,2,2486,349,1471,12159,-13984,4086
357,2,2216,-480,955,12166,-13992,4026
358,2,2051,-762,612,12196,-14004,3868
359,2,1901,-903,320,12218,-14012,3753
360,2,1808,-1089,152,12251,-14021,3671
361,2,1719,-1276,43,12269,-14026,3558
362,2,1688,-1366,-85,12285,-14031,3458
363,2,1657,-1417,-160,12309,-14039,3366
364,2,1638,-1499,-196,12328,-14046,3276
365,2,1610,-1533,-240,12346,-14052,3198
366,2,1589,-1553,-263,12365,-14057,3119
367,2,1572,-1583,-275,12383,-14063,3039
368,2,1570,-1569,-282,12401,-14069,2958
369,2,1576,-1558,-313,12416,-14074,2869
370,2,1558,-1566,-327,12430,-14078,2784
371,2,1560,-1559,-341,12451,-14086,2701
372,2,1550,-1553,-329,12464,-14090,2626
373,2,1557,-1550,-343,12479,-14095,2535
374,2,1552,-1532,-342,12497,-14100,2438
375,2,1554,-1525,-351,12511,-14105,2344
376,2,1559,-1521,-367,12526,-14110,2244
377,2,1553,-1522,-371,12543,-14116,2155
378,2,1560,-1511,-369,12557,-14121,2060
379,2,1563,-1511,-371,12575,-14126,1964
380,2,1557,-1505,-370,12593,-14131,1874
381,2,1556,-1501,-380,12607,-14136,1771
382,2,1559,-1486,-376,12624,-14140,1685
383,3,6591,-2189,187,7532,-11855,5715
384,3,9074,-3452,417,7304,-11812,5309
385,3,11002,-3867,718,7297,-11801,5133
386,3,12207,-4159,995,7282,-11785,5038
387,3,12661,-4464,1544,7343,-11782,4960
388,3,12990,-5117,2287,7139,-11820,4398
389,3,12872,-5366,2610,7008,-11963,3624
390,3,12506,-5240,3189,7041,-12245,2675
391,3,11978,-5380,4273,7255,-12585,1400
392,3,11232,-5025,5201,7866,-12891,-337
393,3,8899,-3162,5763,9006,-13105,-2211
394,3,8096,-1143,5958,9807,-13180,-3501
395,3,8257,-123,6150,9787,-13117,-3665
396,3,8150,273,6043,9625,-13051,-3424
397,3,8009,648,5916,9439,-12997,-2709
398,3,7748,993,5838,9086,-12910,-1646
399,3,7724,1938,5916,8953,-12805,-128
400,3,7850,2322,5943,8684,-12652,1467
401,3,8500,2469,5602,8484,-12444,3083
402,3,9391,1914,5035,8243,-12189,4364
403,3,10755,662,4222,8046,-11937,5223
404,3,12017,-693,3594,7996,-11770,5716
405,3,13494,-1959,3224,7944,-11688,5855
406,3,14431,-1794,2693,7665,-11590,5620
407,3,15179,-2375,1499,7539,-11510,5563
408,3,15680,-2593,550,7544,-11485,5544
409,3,15875,-2691,72,7565,-11484,5497
410,3,15874,-2817,-312,7588,-11541,5280
411,3,15215,-2764,-299,7793,-11698,5059
412,3,14118,-2392,-132,8236,-11992,4797
413,3,12417,-1231,576,9080,-12444,4456
414,3,9956,328,1246,9984,-12931,3658
415,3,6419,1496,2627,10909,-13412,2557
416,3,3996,2011,2925,11721,-13725,1568
417,3,3144,2003,2664,12029,-13828,1249
418,3,2771,1456,2141,12098,-13845,1332
419,3,2404,856,1572,12072,-13841,1443
420,3,2174,-163,973,11998,-13833,1298
421,3,1994,-568,422,12020,-13836,1177
422,3,1888,-739,85,12062,-13847,1108
423,3,1779,-919,-52,12099,-13855,1081
424,3,1704,-1069,-176,12118,-13857,1024
425,3,1664,-1145,-309,12135,-13860,951
426,3,1618,-1191,-388,12150,-13865,890
427,3,1591,-1243,-414,12157,-13866,834
428,3,1431,-759,163,12083,-13855,822
429,3,778,-167,1502,11541,-13701,1132
430,3,-402,1820,2252,10563,-13289,2356
431,3,-947,2616,1930,9168,-12700,3665
432,3,302,2075,1437,7870,-12120,4349
433,3,2459,720,891,6903,-11663,4671
434,3,4541,-983,391,6281,-11373,4784
435,3,6512,-2897,363,5959,-11243,4725
436,3,8533,-3981,657,5747,-11204,4432
437,3,10333,-4551,869,5726,-11177,4193
438,3,11502,-4725,932,5716,-11128,4047
439,3,12251,-4962,880,5727,-11097,3973
440,3,12203,-5320,1317,5864,-11137,3901
441,3,11634,-5835,2267,5836,-11278,3367
442,3,11394,-6012,3211,5925,-11520,2474
443,3,10948,-5534,4246,6140,-11831,1293
444,3,10103,-5036,5143,6600,-12141,-94
445,3,8809,-4237,5720,7300,-12360,-1748
446,3,7355,-2934,6013,8262,-12492,-3131
447,3,6715,-1633,6134,8960,-12511,-4162
448,3,6991,-487,6152,9140,-12450,-4188
449,3,7354,-263,5807,8892,-12370,-3970
450,3,7522,-641,5566,8711,-12324,-3752
451,3,7694,-1144,5498,8513,-12268,-3551
452,3,7756,-1197,5234,8418,-12193,-3191
453,3,7497,-30,4922,8642,-12159,-2225
454,3,7396,1799,4769,8721,-12172,-942
455,3,7636,3346,4427,8588,-12168,641
456,3,8296,3717,4054,8318,-12077,2212
457,3,9300,2980,3741,8038,-11891,3570
458,3,10550,1444,3133,7821,-11696,4379
459,3,11794,-101,2903,7795,-11587,4803
460,3,12871,-1407,2654,7539,-11515,4575
461,3,13943,-1985,1810,7452,-11440,4563
462,3,14678,-2015,922,7477,-11395,4598
463,3,15189,-1813,407,7472,-11359,4580
464,3,15496,-1931,117,7435,-11314,4609
465,3,15262,-2293,3,7417,-11319,4486
466,3,14596,-2277,-187,7544,-11455,4220
467,3,13883,-1731,-67,7973,-11748,3895
468,3,12420,-689,744,8728,-12170,3374
469,3,10054,872,1490,9727,-12633,2546
470,3,6723,1996,1806,10717,-13039,1536
471,3,4070,2937,2123,11347,-13272,463
472,3,3329,2291,1945,11500,-13344,217
473,3,2880,1909,1492,11586,-13362,226
474,3,2489,1215,973,11526,-13362,246
475,3,2141,361,409,11468,-13351,204
476,3,1980,50,-74,11481,-13343,274
477,3,1851,-446,-310,11451,-13345,230
478,3,1729,-558,-479,11479,-13348,136
479,3,1665,-534,-568,11509,-13352,129
480,3,1601,-619,-574,11513,-13353,112
481,3,1571,-664,-646,11511,-13351,76
482,3,1555,-694,-673,11525,-13354,56
483,3,1545,-733,-647,11538,-13354,41
484,3,1544,-658,-227,11533,-13349,26
485,3,1159,154,949,11345,-13260,161
486,3,455,1686,1541,10805,-13012,1062
487,3,-503,3010,1479,9863,-12641,2335
488,3,-814,3458,1099,8748,-12178,3528
489,3,596,2205,521,7659,-11682,4349
490,3,2816,263,222,7011,-11302,4890
491,3,5247,-1848,-25,6490,-11046,4964
492,3,7372,-3365,189,6239,-10949,4765
493,3,9330,-3835,485,6163,-10934,4504
494,3,11024,-4039,794,6155,-10910,4428
495,3,12018,-4156,1050,6106,-10871,4347
496,3,12711,-4385,1298,6035,-10819,4248
497,3,12906,-4868,1509,6007,-10769,4180
498,3,12582,-5320,1806,5912,-10803,3767
499,3,12375,-5610,2387,5902,-10942,3167
500,3,11878,-5610,3026,5908,-11184,2267
501,3,11271,-5437,3893,6132,-11529,1194
502,3,10209,-4804,4750,6697,-11853,-62
503,3,8538,-3909,4964,7438,-12117,-1588
504,3,6753,-2465,5575,8541,-12337,-2851
505,3,6801,-1095,6172,8982,-12336,-3215
506,3,6878,-326,6061,8879,-12241,-3030
507,3,7037,-328,5714,8659,-12160,-2836
508,3,7188,-705,5441,8394,-12081,-2605
509,3,7330,-691,5148,8159,-12000,-2279
510,3,7136,-208,5100,8023,-11928,-1627
511,3,6909,1184,5149,8050,-11862,-448
512,3,6428,2190,5378,7821,-11773,890
513,3,6693,2613,5457,7538,-11592,2449
514,3,7770,1675,4821,7097,-11296,3646
515,3,9158,-52,4087,6853,-11039,4392
516,3,10799,-1442,3359,6770,-10857,4744
517,3,12361,-2265,2536,6759,-10738,4870
518,3,13274,-2093,1917,6642,-10662,4789
519,3,14284,-2458,965,6540,-10585,4784
520,3,14833,-2536,113,6511,-10528,4758
521,3,15268,-2519,-467,6470,-10479,4711
522,3,15423,-2619,-771,6439,-10441,4690
523,3,14877,-2684,-1197,6399,-10491,4424
524,3,14367,-2919,-1266,6636,-10723,4216
525,3,13131,-2113,-582,7204,-11149,3849
526,3,11194,-486,489,7957,-11604,3369
527,3,8382,831,1358,8833,-12060,2820
528,3,5407,1908,1650,9785,-12450,2233
529,3,3472,2462,1717,10266,-12671,1547
530,3,2897,1792,1359,10353,-12712,1539
531,3,2526,1368,819,10343,-12716,1557
532,3,2205,576,218,10263,-12712,1556
533,3,1936,-132,-277,10262,-12718,1520
534,3,1772,-618,-653,10261,-12725,1454
535,3,1665,-750,-872,10301,-12741,1378
536,3,1590,-840,-967,10344,-12755,1348
537,3,1523,-913,-923,10361,-12762,1327
538,3,1445,-809,-17,10238,-12734,1279
539,3,795,-395,1222,9888,-12559,1256
540,3,-273,1115,1756,9306,-12196,1831
541,3,-1222,2512,1538,8414,-11717,2721
542,3,-910,2669,737,7380,-11187,3651
543,3,923,954,-287,6423,-10733,4239
544,3,2879,-1352,-422,5840,-10437,4530
545,3,5292,-3303,-158,5611,-10286,4564
546,3,7322,-3752,415,5538,-10238,4407
547,3,9249,-4383,670,5478,-10213,4238
548,3,10509,-4473,1060,5468,-10181,4149
549,3,11409,-4511,1341,5415,-10118,4046
550,3,11907,-4698,1472,5349,-10049,3962
551,3,11760,-5052,1921,5356,-10010,3893
552,3,11552,-6111,2339,5152,-10069,3234
553,3,11282,-6159,2460,5142,-10295,2341
554,3,10757,-5582,3251,5302,-10656,1467
555,3,10095,-5374,4228,5611,-11028,540
556,3,9370,-5160,4807,6126,-11327,-519
557,3,7695,-4027,4720,6941,-11582,-1548
558,3,7215,-2211,5025,7747,-11736,-2088
559,3,7375,-1197,5231,7812,-11706,-2100
560,3,7471,-1283,5098,7645,-11618,-1919
561,3,7619,-1495,5066,7468,-11532,-1747
562,3,7750,-1385,5076,7316,-11420,-1496
563,3,7535,-433,5493,7287,-11266,-821
564,3,7396,1377,5025,7221,-11076,407
565,3,7378,2135,4637,6917,-10892,1645
566,3,7937,1259,4160,6469,-10614,2642
567,3,9272,-248,3173,6266,-10326,3367
568,3,10694,-1407,2240,6328,-10164,3905
569,3,12210,-2293,1962,6450,-10104,4228
570,3,13217,-2618,2160,6443,-10054,4245
571,3,13951,-3335,1437,6282,-9963,4037
572,3,14633,-3097,495,6219,-9858,4035
573,3,15014,-2865,-346,6164,-9777,4005
574,3,15189,-2760,-840,6125,-9724,3992
575,3,15173,-2880,-1223,6130,-9686,3989
576,3,14572,-2833,-1480,6217,-9767,3840
577,3,13609,-2605,-1282,6480,-10036,3630
578,3,12148,-1776,-542,6962,-10456,3257
579,3,10180,-320,634,7677,-10910,2833
580,3,7465,1146,1305,8490,-11329,2432
581,3,4721,1864,1550,9212,-11697,2027
582,3,3201,1983,1538,9573,-11907,1704
583,3,2615,1285,1074,9646,-11957,1728
584,3,2292,621,624,9665,-11968,1736
585,3,1946,-32,-57,9646,-11971,1629
586,3,1720,-435,-718,9643,-11977,1554
587,3,1567,-696,-1143,9650,-11985,1548
588,3,1440,-1002,-1291,9674,-11998,1528
589,3,1375,-1111,-1290,9681,-12003,1476
590,3,1246,-1040,-957,9624,-11993,1400
591,3,681,-268,281,9368,-11883,1409
592,3,-501,1282,1203,8744,-11533,1821
593,3,-1365,2561,1111,7808,-11022,2549
594,3,-931,2409,545,6816,-10492,3117
595,3,688,1091,-68,6005,-10040,3514
596,3,2686,-949,-593,5426,-9728,3660
597,3,5015,-2939,-917,5161,-9564,3648
598,3,7104,-4061,-696,5059,-9519,3471
599,3,8910,-4527,-225,5037,-9491,3355
600,3,10109,-4842,135,5009,-9439,3259
601,3,10919,-5177,313,5017,-9384,3192
602,3,11235,-5570,623,5068,-9363,3011
603,3,11243,-5653,709,5147,-9419,2539
604,3,11201,-4831,713,5375,-9523,2037
605,3,11003,-3355,1056,5720,-9660,1609
606,3,10226,-2419,1016,6074,-9800,1218
607,3,8474,-1551,603,6697,-10087,723
608,3,5724,402,-80,7731,-10525,287
609,3,2492,2008,1383,8590,-10931,-320
610,3,1674,2360,2154,8803,-11015,-557
611,3,1424,2256,2088,8762,-10986,-457
612,3,880,1072,3000,8487,-10866,-362
613,3,-301,-1527,4075,8080,-10536,-640
614,3,-1712,-2336,3574,8008,-10142,-1143
615,3,-1512,-931,1195,8065,-9808,-1479
616,3,776,-56,-374,8042,-9626,-1579
617,3,2905,283,-783,7999,-9518,-1431
618,3,4424,377,-296,7923,-9448,-1081
619,3,5539,725,815,7841,-9391,-602
620,3,6475,1727,1791,7766,-9325,110
621,3,7306,2622,2754,7554,-9222,865
622,3,7891,3102,2904,7240,-9032,1684
623,3,8227,2439,2511,6883,-8801,2428
624,3,8903,628,1888,6583,-8591,2912
625,3,9903,-1239,1342,6423,-8435,3087
626,3,11072,-2408,760,6355,-8337,2993
627,3,12482,-2688,-111,6283,-8237,2942
628,3,12916,-3019,-747,6260,-8187,2884
629,3,12841,-3150,-1294,6261,-8228,2579
630,3,12550,-2691,-1554,6424,-8362,2248
631,3,11799,-1724,-1691,6759,-8604,1933
632,3,10430,-479,-1442,7244,-8971,1626
633,3,8171,799,-630,7868,-9422,1346
634,3,5028,1618,235,8521,-9871,1032
635,3,2822,2058,687,9013,-10190,660
636,3,2048,1613,493,9138,-10312,568
637,3,1644,1070,134,9140,-10348,539
638,3,1379,411,-535,9097,-10351,466
639,3,1138,-137,-1314,9044,-10351,353
640,3,1001,-401,-1961,9062,-10361,329
641,3,880,-645,-2308,9087,-10379,351
642,3,794,-828,-2454,9114,-10405,359
643,3,728,-983,-2521,9135,-10425,346
644,3,695,-1018,-2596,9163,-10445,319
645,3,671,-1021,-2668,9188,-10467,295
646,3,661,-1006,-2722,9210,-10488,273
647,3,653,-1025,-2736,9230,-10509,263
648,3,657,-1062,-2758,9251,-10529,241
649,3,662,-1061,-2768,9279,-10551,214
650,3,654,-1053,-2791,9307,-10574,188
651,3,659,-1039,-2787,9335,-10597,165
652,3,659,-1056,-2772,9360,-10619,143
653,3,667,-1071,-2767,9385,-10641,121
654,3,670,-1073,-2770,9409,-10661,95
655,3,681,-1073,-2769,9437,-10684,70
656,3,689,-1072,-2769,9462,-10706,44
657,3,681,-1066,-2763,9485,-10725,18
658,3,691,-1073,-2753,9510,-10747,-7
659,3,694,-1073,-2734,9535,-10768,-33
660,3,710,-1062,-2727,9559,-10787,-61
661,3,713,-1062,-2725,9581,-10806,-87
662,3,728,-1063,-2714,9604,-10826,-115
663,3,728,-1064,-2712,9630,-10847,-141
664,3,744,-1063,-2710,9654,-10866,-168
665,4,6740,-2254,-893,7075,-10510,2240
666,4,8640,-2112,82,7066,-10498,2065
667,4,10367,-2700,420,6991,-10430,1938
668,4,11500,-3006,681,6938,-10360,1867
669,4,12266,-3241,839,6884,-10284,1785
670,4,12762,-3481,895,6829,-10206,1707
671,4,12822,-3868,1112,6823,-10149,1655
672,4,12368,-4678,1370,6706,-10157,1185
673,4,12215,-5221,1805,6736,-10280,500
674,4,11882,-5270,2423,6913,-10479,-418
675,4,11104,-4789,3267,7294,-10707,-1449
676,4,10118,-3932,3836,7841,-10871,-2484
677,4,8827,-2741,4078,8579,-10997,-3473
678,4,7365,-1004,4784,9396,-11122,-4271
679,4,7304,28,5254,9554,-11075,-4230
680,4,7375,139,5072,9382,-10995,-4151
681,4,7414,288,5078,9260,-10931,-4040
682,4,6874,1310,5395,9074,-10838,-3238
683,4,6631,1670,5366,8523,-10687,-2164
684,4,7041,1421,5065,8037,-10463,-1079
685,4,7890,772,4115,7694,-10219,-79
686,4,9086,-58,2869,7480,-9997,710
687,4,10482,-985,1963,7419,-9828,1267
688,4,12246,-1532,1376,7497,-9700,1608
689,4,13391,-1844,828,7499,-9592,1767
690,4,13927,-1292,727,7385,-9532,1697
691,4,14688,-1525,-304,7273,-9425,1698
692,4,15054,-1608,-1251,7232,-9345,1704
693,4,14983,-1942,-1647,7219,-9306,1728
694,4,14332,-2299,-1974,7229,-9356,1330
695,4,13457,-1812,-2279,7578,-9580,1082
696,4,12235,-873,-1773,8127,-9947,682
697,4,10261,603,-923,8944,-10349,153
698,4,6533,2050,111,9822,-10719,-667
699,4,3200,2898,888,10547,-11012,-1478
700,4,2401,2630,685,10801,-11121,-1604
701,4,1995,2237,172,10917,-11164,-1486
702,4,1710,1633,-331,10951,-11196,-1467
703,4,1492,846,-877,10969,-11219,-1455
704,4,1332,289,-1368,10995,-11239,-1444
705,4,1206,-127,-1723,11022,-11261,-1497
706,4,1101,-302,-1982,11066,-11284,-1535
707,4,1042,-396,-2137,11100,-11307,-1573
708,4,1012,-441,-2181,11133,-11326,-1588
709,4,919,-193,-1919,11139,-11332,-1544
710,4,578,622,-1250,10985,-11289,-1350
711,4,-282,2229,-664,10551,-11160,-673
712,4,-1469,3651,-723,9824,-10948,398
713,4,-1599,4044,-1211,8941,-10699,1537
714,4,-4,2929,-1572,8064,-10424,2286
715,4,2309,1174,-1544,7370,-10159,2654
716,4,4603,-974,-1525,6916,-9950,2777
717,4,6805,-2714,-1406,6746,-9861,2740
718,4,8667,-3157,-746,6699,-9831,2630
719,4,10133,-3623,-213,6667,-9773,2492
720,4,11211,-3802,44,6644,-9697,2400
721,4,11914,-4010,99,6605,-9627,2337
722,4,11985,-4295,492,6620,-9595,2280
723,4,11748,-4941,933,6578,-9638,1895
724,4,11509,-5405,1521,6618,-9746,1374
725,4,11195,-5366,2017,6765,-9910,667
726,4,10701,-5159,2425,7041,-10151,-190
727,4,9721,-4808,3216,7525,-10411,-1132
728,4,8643,-3939,3702,8230,-10588,-2065
729,4,7210,-2198,4190,9033,-10731,-2800
730,4,6891,-276,4667,9512,-10777,-3303
731,4,6913,524,4732,9588,-10735,-3187
732,4,7047,607,4506,9442,-10673,-3045
733,4,7082,281,4361,9316,-10617,-2847
734,4,7126,205,4379,9232,-10555,-2620
735,4,6953,1137,4399,9183,-10483,-2180
736,4,6533,2947,3969,8973,-10411,-1161
737,4,6704,3493,3641,8529,-10331,19
738,4,7788,3152,2959,8124,-10197,1198
739,4,8935,1849,2314,7830,-10047,2123
740,4,10115,273,2237,7710,-9941,2765
741,4,11560,-925,2273,7681,-9844,3101
742,4,12366,-1697,1921,7622,-9729,3149
743,4,12941,-1931,1145,7523,-9641,3052
744,4,13867,-2008,326,7469,-9557,3040
745,4,14424,-2123,-331,7404,-9470,2973
746,4,14814,-2177,-830,7351,-9393,2942
747,4,15070,-2164,-1269,7317,-9328,2952
748,4,15013,-2207,-1522,7297,-9283,2916
749,4,14491,-2466,-1975,7322,-9317,2701
750,4,13604,-2461,-2198,7587,-9533,2477
751,4,11994,-1566,-1750,8112,-9936,2229
752,4,9717,-183,-641,8869,-10421,1891
753,4,6536,1583,507,9676,-10816,1410
754,4,3901,2727,686,10330,-11103,929
755,4,2687,2831,542,10610,-11257,559
756,4,2202,2233,90,10693,-11294,658
757,4,1980,1556,-474,10742,-11310,741
758,4,1645,645,-950,10752,-11329,711
759,4,1430,36,-1357,10763,-11342,636
760,4,1320,-231,-1780,10798,-11360,601
761,4,1209,-501,-2006,10837,-11387,592
762,4,1121,-768,-2066,10869,-11407,575
763,4,1060,-844,-2180,10892,-11423,533
764,4,1038,-943,-2332,10912,-11439,516
765,4,1022,-1109,-2362,10940,-11458,513
766,4,1041,-1210,-2175,10974,-11473,474
767,4,828,-988,-1475,11017,-11459,468
768,4,421,-1,-557,10942,-11354,624
769,4,-590,1189,-246,10582,-11136,1089
770,4,-1816,2150,-413,9936,-10833,1797
771,4,-2105,2408,-891,9113,-10462,2562
772,4,-659,1558,-1246,8312,-10072,3188
773,4,1588,-234,-1251,7633,-9718,3579
774,4,4012,-2390,-1250,7197,-9446,3737
775,4,6076,-3873,-1006,7069,-9302,3838
776,4,7815,-4240,-351,7011,-9245,3697
777,4,9520,-4669,55,6972,-9187,3562
778,4,10633,-4700,328,6944,-9121,3454
779,4,11382,-4639,445,6901,-9042,3358
780,4,11975,-4709,461,6857,-8967,3296
781,4,11752,-4861,1008,6858,-8913,3281
782,4,11504,-5582,1417,6787,-8913,2799
783,4,11339,-5495,1472,6883,-9006,2276
784,4,11174,-5108,1676,7072,-9218,1567
785,4,10681,-4930,2473,7376,-9509,736
786,4,9941,-4409,3182,7864,-9778,-133
787,4,8748,-3249,3172,8521,-10008,-906
788,4,7075,-1904,3532,9241,-10257,-1454
789,4,6601,-604,4423,9629,-10347,-1829
790,4,6402,-70,4880,9600,-10273,-1882
791,4,6381,30,4608,9459,-10156,-1809
792,4,6474,-104,3900,9253,-10047,-1680
793,4,6412,-55,3486,9008,-9958,-1495
794,4,6124,-209,3648,8728,-9837,-974
795,4,6025,386,3975,8435,-9700,-253
796,4,6287,1161,4313,8113,-9527,605
797,4,6829,1580,4317,7754,-9310,1547
798,4,7593,1034,3763,7360,-9038,2319
799,4,8721,-289,2760,7050,-8782,2809
800,4,10093,-1569,1870,6892,-8582,3082
801,4,11158,-2439,791,6834,-8434,3229
802,4,12314,-2878,-282,6745,-8374,3045
803,4,13377,-2916,-1145,6705,-8308,3086
804,4,13850,-2685,-1827,6692,-8253,3099
805,4,14083,-2633,-2051,6673,-8213,3097
806,4,13932,-2811,-2239,6649,-8195,2940
807,4,13502,-2894,-2526,6754,-8294,2753
808,4,12553,-2425,-2271,7027,-8557,2492
809,4,11265,-1407,-1695,7473,-8937,2213
810,4,9069,132,-568,8073,-9387,1949
811,4,6484,1427,292,8716,-9793,1759
812,4,4016,2010,478,9265,-10134,1446
813,4,2614,1831,471,9542,-10345,1163
814,4,2019,1096,54,9617,-10413,1124
815,4,1660,512,-508,9648,-10435,1130
816,4,1364,-92,-1287,9637,-10445,1089
817,4,1152,-683,-1920,9637,-10461,1040
818,4,1000,-1051,-2332,9674,-10489,1015
819,4,890,-1154,-2540,9716,-10520,991
820,4,801,-1220,-2643,9743,-10547,971
821,4,772,-1359,-2688,9756,-10564,946
822,4,637,-1330,-2062,9762,-10563,922
823,4,92,-520,-844,9622,-10445,982
824,4,-887,977,-218,9208,-10166,1400
825,4,-1743,1830,-205,8567,-9789,1848
826,4,-1565,2132,-456,7871,-9390,2245
827,4,-317,1604,-826,7187,-8994,2541
828,4,1733,166,-1327,6616,-8641,2714
829,4,3919,-1605,-1508,6240,-8365,2839
830,4,5997,-3324,-1628,6034,-8169,2872
831,4,7723,-3917,-1478,5941,-8075,2736
832,4,9359,-4453,-1333,5903,-8015,2674
833,4,10436,-4666,-1149,5878,-7954,2614
834,4,11109,-4873,-1079,5858,-7895,2552
835,4,11577,-5137,-886,5861,-7851,2527
836,4,11227,-5508,-500,5854,-7847,2293
837,4,11126,-6022,55,5900,-7909,1947
838,4,10944,-5920,525,6029,-8040,1383
839,4,10692,-5466,908,6219,-8250,731
840,4,10285,-5149,1457,6500,-8543,37
841,4,9483,-4774,2092,6937,-8826,-673
842,4,8157,-3877,2482,7552,-9082,-1277
843,4,6982,-2523,3133,8143,-9300,-1643
844,4,6815,-1369,3829,8404,-9337,-1780
845,4,6776,-876,3830,8374,-9248,-1704
846,4,6767,-722,3504,8269,-9163,-1636
847,4,6781,-777,3337,8136,-9086,-1555
848,4,6556,-515,3660,7979,-8967,-1215
849,4,6511,-77,4025,7718,-8780,-727
850,4,6462,449,3726,7408,-8546,-122
851,4,6794,636,3096,7065,-8320,619
852,4,7723,164,2316,6736,-8072,1275
853,4,8760,-882,1366,6513,-7829,1787
854,4,9968,-1642,521,6441,-7663,2247
855,4,11234,-2394,125,6433,-7565,2557
856,4,12387,-2679,-162,6406,-7467,2681
857,4,12860,-2930,-483,6337,-7363,2578
858,4,13394,-2919,-1371,6238,-7242,2493
859,4,13712,-2785,-2206,6192,-7139,2495
860,4,13892,-2723,-2784,6164,-7065,2474
861,4,13864,-2981,-3099,6164,-7027,2476
862,4,13876,-3332,-3127,6177,-7066,2207
863,4,13004,-3277,-3015,6312,-7219,1899
864,4,11570,-2266,-2857,6666,-7493,1654
865,4,9863,-767,-2387,7127,-7863,1455
866,4,7410,641,-1403,7668,-8329,1278
867,4,4796,1539,-407,8205,-8762,1078
868,4,2671,1886,2,8637,-9088,826
869,4,1676,1562,-129,8798,-9243,709
870,4,1332,1013,-688,8848,-9298,725
871,4,1040,259,-1301,8866,-9324,703
872,4,731,-304,-2070,8877,-9341,654
873,4,583,-652,-2715,8897,-9364,638
874,4,461,-893,-3088,8930,-9400,631
875,4,328,-1095,-3232,8962,-9434,620
876,4,289,-1159,-3388,8991,-9462,600
877,4,235,-1216,-3523,9014,-9490,572
878,4,220,-1270,-3587,9033,-9516,546
879,4,166,-1318,-3107,9040,-9529,515
880,4,-151,-938,-1978,8990,-9463,511
881,4,-948,45,-1030,8778,-9254,647
882,4,-2054,1238,-731,8326,-8929,999
883,4,-2663,2055,-766,7687,-8534,1453
884,4,-1819,1769,-1144,6957,-8112,1831
885,4,333,313,-1854,6354,-7747,2064
886,4,2541,-1283,-2305,5946,-7481,2171
887,4,4697,-2935,-2255,5706,-7291,2228
888,4,6411,-3462,-2031,5589,-7173,2109
889,4,8173,-4144,-2013,5554,-7097,2057
890,4,9503,-4698,-1992,5525,-7023,1965
891,4,10361,-4963,-1969,5545,-6972,1923
892,4,10396,-5368,-1356,5605,-6983,1881
893,4,10128,-5824,-700,5643,-7085,1480
894,4,9996,-5601,-348,5787,-7221,1020
895,4,9798,-5260,-108,6003,-7433,471
896,4,9336,-4990,656,6310,-7728,-96
897,4,8597,-4919,1633,6726,-8012,-704
898,4,7256,-4384,2316,7290,-8254,-1248
899,4,6092,-3649,2922,7861,-8460,-1696
900,4,5982,-2227,3304,8235,-8517,-1914
901,4,6183,-1364,3016,8281,-8442,-1895
902,4,6396,-956,2653,8244,-8388,-1850
903,4,6378,-1343,2687,8148,-8346,-1805
904,4,6379,-1441,2964,8060,-8272,-1718
905,4,5996,-713,3257,7934,-8132,-1230
906,4,5381,695,3298,7682,-7973,-379
907,4,5561,1050,2962,7248,-7759,512
908,4,6842,486,2071,6835,-7530,1165
909,4,8180,-326,1179,6593,-7320,1723
910,4,9384,-1286,369,6468,-7160,2133
911,4,10578,-2039,-259,6456,-7057,2414
912,4,11798,-2331,-622,6477,-6967,2596
913,4,12214,-1831,-568,6414,-6871,2533
914,4,12939,-2228,-1316,6292,-6760,2412
915,4,13374,-2315,-2313,6250,-6649,2445
916,4,13526,-2336,-3036,6226,-6573,2459
917,4,13541,-2705,-3292,6234,-6534,2480
918,4,13107,-3144,-3547,6291,-6580,2198
919,4,12071,-2767,-3473,6548,-6783,1965
920,4,10589,-1554,-2972,6951,-7124,1740
921,4,8673,-134,-2194,7468,-7551,1521
922,4,6004,1302,-1264,8058,-7999,1329
923,4,3363,2079,-835,8582,-8395,1094
924,4,1814,2330,-617,8844,-8651,832
925,4,1288,1262,-969,8850,-8730,772
926,4,920,674,-1451,8887,-8767,760
927,4,598,8,-2237,8903,-8800,703
928,4,385,-430,-2904,8921,-8832,641
929,4,256,-709,-3381,8938,-8858,627
930,4,158,-992,-3604,8977,-8891,634
931,4,43,-1342,-3028,9011,-8909,627
932,4,-394,-1385,-1959,9013,-8844,544
933,4,-1265,-638,-1328,8949,-8662,543
934,4,-2461,613,-1053,8618,-8342,822
935,4,-3424,1649,-1060,7999,-7928,1203
936,4,-2900,1080,-1486,7241,-7444,1376
937,4,-859,-349,-2263,6653,-6986,1557
938,4,1377,-2129,-2878,6276,-6667,1689
939,4,3486,-3851,-2933,6083,-6492,1773
940,4,5473,-4606,-2676,5997,-6396,1627
941,4,7144,-5176,-2671,5981,-6313,1570
942,4,8509,-5431,-2609,5995,-6253,1508
943,4,9330,-5735,-2419,6031,-6227,1444
944,4,8877,-5841,-1610,6111,-6269,1284
945,4,8848,-6116,-991,6206,-6369,901
946,4,8881,-6046,-594,6378,-6522,409
947,4,8764,-5551,-137,6650,-6760,-85
948,4,8443,-5399,546,6978,-7055,-650
949,4,7827,-5145,1474,7443,-7323,-1200
950,4,6535,-4265,1900,8035,-7543,-1633
951,4,5962,-2612,2228,8576,-7702,-1808
952,4,6105,-1198,2521,8774,-7701,-1792
953,4,6264,-630,2239,8714,-7622,-1755
954,4,6352,-564,2276,8636,-7571,-1665
955,4,6340,-832,2575,8548,-7506,-1569
956,4,6355,-799,2842,8446,-7396,-1479
957,4,6498,-631,2462,8305,-7258,-1345
958,4,6580,89,2128,8136,-7126,-1035
959,4,6622,301,1920,7843,-6977,-729
960,4,6874,115,1656,7509,-6805,-351
961,4,7650,-424,772,7230,-6618,-29
962,4,8230,-902,47,7066,-6528,305
963,4,8329,-1360,-674,7054,-6640,559
964,4,7883,-1092,372,7246,-6950,785
965,4,7247,1895,2810,7475,-7173,1242
966,4,7587,3739,3359,7133,-7040,1834
967,4,7675,3180,2949,6481,-6758,2224
968,4,7712,1608,1589,5897,-6438,2268
969,4,7834,119,-411,5596,-6215,1887
970,4,8869,-787,-1395,5576,-6131,1805
971,4,10047,-1292,-1792,5593,-6038,1690
972,4,11119,-1617,-2315,5608,-5903,1632
973,4,11818,-1678,-3017,5598,-5778,1604
974,4,12302,-1886,-3516,5548,-5692,1610
975,4,11440,-2952,-4244,5620,-5700,1652
976,4,10433,-2690,-4136,5907,-5982,1427
977,4,8926,-1508,-3348,6384,-6427,1234
978,4,6756,-122,-2021,6999,-6957,1038
979,4,3830,1408,-1178,7668,-7437,1042
980,4,1856,2346,-1137,8104,-7725,999
981,4,1136,1996,-1450,8249,-7847,1006
982,4,717,1345,-1865,8314,-7902,1038
983,4,353,665,-2478,8330,-7937,973
984,4,63,106,-3144,8320,-7967,894
985,4,-83,-247,-3611,8340,-8005,863
986,4,-216,-572,-3885,8354,-8043,843
987,4,-317,-801,-4027,8370,-8075,825
988,4,-368,-931,-4149,8385,-8106,799
989,4,-386,-959,-4251,8407,-8139,786
990,4,-397,-1077,-4296,8425,-8172,771
991,4,-409,-1129,-4322,8452,-8207,756
992,4,-416,-1149,-4351,8478,-8244,733
993,4,-418,-1187,-4371,8505,-8279,718
994,4,-429,-1233,-4370,8535,-8315,703
995,4,-421,-1253,-4361,8561,-8350,689
996,4,-391,-1257,-4366,8592,-8387,673
997,4,-384,-1271,-4336,8622,-8424,659
998,4,-379,-1280,-4316,8652,-8460,646
999,4,-357,-1286,-4319,8676,-8495,626
1000,4,-331,-1300,-4328,8706,-8532,605
1001,4,-323,-1309,-4312,8734,-8569,588
1002,4,-313,-1302,-4299,8763,-8605,571
1003,4,-297,-1308,-4289,8790,-8640,554
1004,4,-282,-1310,-4282,8814,-8675,537
1005,4,-269,-1301,-4267,8840,-8709,519
1006,4,-245,-1303,-4272,8864,-8742,501
1007,4,-222,-1301,-4253,8888,-8775,483
1008,4,-202,-1286,-4242,8915,-8809,467
1009,4,-200,-1295,-4222,8940,-8841,451
1010,5,5593,-2451,-2331,6339,-8461,1910
1011,5,7760,-3456,-2173,6236,-8364,1724
1012,5,9432,-3859,-1911,6214,-8294,1630
1013,5,10554,-4038,-1674,6196,-8234,1551
1014,5,11374,-4256,-1491,6172,-8170,1493
1015,5,11940,-4471,-1355,6166,-8114,1451
1016,5,12057,-4667,-936,6190,-8085,1417
1017,5,11665,-5479,-471,6091,-8119,1024
1018,5,11228,-6214,-187,6074,-8276,486
1019,5,10667,-6095,242,6296,-8535,-106
1020,5,10422,-5859,853,6645,-8827,-811
1021,5,9639,-5351,1712,7152,-9110,-1525
1022,5,8157,-4289,2005,7820,-9341,-2199
1023,5,6855,-2653,2641,8508,-9552,-2666
1024,5,6820,-1125,3531,8759,-9569,-2671
1025,5,6982,-695,3484,8705,-9493,-2575
1026,5,7014,-627,3550,8637,-9431,-2547
1027,5,6982,-407,3777,8554,-9361,-2460
1028,5,6688,624,4125,8368,-9222,-1976
1029,5,6516,1420,3985,7991,-9046,-1264
1030,5,6605,1305,3641,7580,-8845,-559
1031,5,6936,752,3089,7250,-8604,243
1032,5,8126,-174,2004,6984,-8317,912
1033,5,9664,-1270,834,6845,-8093,1351
1034,5,11193,-1983,38,6846,-7975,1646
1035,5,12340,-2383,-482,6831,-7889,1801
1036,5,13189,-2056,-714,6775,-7799,1785
1037,5,13877,-2450,-1634,6658,-7681,1712
1038,5,14230,-2478,-2542,6628,-7597,1722
1039,5,14449,-2295,-3101,6623,-7539,1711
1040,5,14583,-2310,-3244,6609,-7494,1725
1041,5,14298,-2482,-3053,6572,-7471,1561
1042,5,14119,-2436,-3174,6589,-7481,1403
1043,5,13565,-2161,-3157,6681,-7553,1171
1044,5,12668,-1502,-3209,6919,-7747,952
1045,5,11446,-703,-3072,7377,-8116,715
1046,5,9014,648,-1931,8053,-8602,455
1047,5,5560,1851,-575,8746,-9055,168
1048,5,3049,2391,109,9224,-9355,-59
1049,5,2267,2169,-213,9425,-9461,-53
1050,5,1773,1715,-786,9480,-9507,-79
1051,5,1349,1100,-1449,9487,-9534,-144
1052,5,1005,534,-2115,9493,-9558,-173
1053,5,821,48,-2520,9502,-9589,-201
1054,5,647,-123,-2743,9540,-9618,-213
1055,5,526,-231,-2898,9556,-9641,-221
1056,5,502,-239,-2993,9547,-9659,-249
1057,5,163,198,-2432,9490,-9651,-227
1058,5,-717,1916,-1042,9144,-9522,117
1059,5,-2132,3941,-832,8416,-9207,779
1060,5,-2160,4158,-1746,7472,-8860,1303
1061,5,-502,2870,-2196,6683,-8543,1548
1062,5,1718,1036,-2313,6137,-8272,1666
1063,5,3588,-960,-2435,5826,-8099,1650
1064,5,5481,-1951,-2198,5653,-7994,1471
1065,5,7552,-3106,-1866,5613,-7904,1373
1066,5,9011,-3797,-1611,5605,-7816,1286
1067,5,9938,-4144,-1505,5601,-7737,1205
1068,5,10035,-4918,-1194,5644,-7699,1214
1069,5,9743,-5384,-488,5684,-7724,839
1070,5,9830,-5302,47,5834,-7812,373
1071,5,10073,-5053,864,5999,-7970,-325
1072,5,9831,-4572,1741,6272,-8173,-1123
1073,5,9525,-3747,2055,6661,-8364,-1844
1074,5,8424,-2816,2403,7198,-8565,-2400
1075,5,7089,-1914,2669,7765,-8752,-2879
1076,5,6948,-920,3292,8115,-8814,-3016
1077,5,6788,-549,3474,8095,-8750,-3043
1078,5,6752,-254,3532,8067,-8693,-2961
1079,5,6418,-54,3939,7899,-8600,-2743
1080,5,5905,345,4047,7536,-8385,-2200
1081,5,6063,404,3863,7094,-8114,-1613
1082,5,6677,196,3088,6796,-7822,-886
1083,5,7605,-189,2018,6562,-7555,-193
1084,5,8765,-1055,1022,6355,-7298,281
1085,5,10103,-1894,25,6359,-7120,673
1086,5,11399,-2214,-511,6443,-7027,1024
1087,5,12518,-2453,-714,6444,-6930,1186
1088,5,12867,-2376,-1232,6375,-6849,1151
1089,5,13377,-2372,-1956,6318,-6758,1127
1090,5,13617,-2146,-2675,6271,-6652,1072
1091,5,13830,-2002,-3243,6236,-6568,1086
1092,5,13923,-2028,-3551,6203,-6488,1093
1093,5,13708,-2256,-3917,6196,-6421,1102
1094,5,12909,-2283,-4283,6271,-6458,925
1095,5,12027,-2083,-4195,6502,-6692,770
1096,5,10534,-1190,-3175,6945,-7093,552
1097,5,8629,242,-1758,7523,-7526,288
1098,5,6021,1691,-878,8166,-7910,164
1099,5,3581,2636,-605,8683,-8204,54
1100,5,2174,2757,-818,8949,-8381,-53
1101,5,1523,2342,-1282,9049,-8454,15
1102,5,1090,1748,-1833,9069,-8486,49
1103,5,707,1063,-2483,9080,-8519,6
1104,5,424,523,-2994,9095,-8554,-30
1105,5,255,274,-3312,9119,-8587,-52
1106,5,113,130,-3521,9128,-8616,-69
1107,5,-17,-34,-3636,9127,-8640,-95
1108,5,-103,-223,-3655,9121,-8659,-115
1109,5,-21,-221,-3731,9122,-8669,-112
1110,5,-16,-142,-3821,9119,-8682,-115
1111,5,-75,-70,-3613,9112,-8701,-98
1112,5,-578,884,-2487,9012,-8672,43
1113,5,-1124,2746,-1169,8606,-8474,395
1114,5,-2114,4567,-965,7865,-8126,981
1115,5,-1823,4091,-1849,6973,-7737,1398
1116,5,26,2353,-2727,6300,-7405,1538
1117,5,2229,347,-3115,5917,-7182,1567
1118,5,4429,-1526,-3002,5709,-7051,1421
1119,5,6654,-2510,-2907,5630,-6951,1259
1120,5,8468,-3231,-2845,5605,-6868,1193
1121,5,9695,-3680,-2748,5582,-6792,1118
1122,5,10564,-3910,-2668,5571,-6714,1050
1123,5,11249,-4156,-2644,5558,-6640,1001
1124,5,11369,-4676,-2473,5567,-6603,1006
1125,5,11096,-5165,-2064,5540,-6660,681
1126,5,10763,-5781,-1523,5558,-6817,263
1127,5,10307,-6089,-894,5709,-7078,-250
1128,5,9619,-6040,-238,6024,-7395,-865
1129,5,8590,-5665,608,6505,-7725,-1490
1130,5,7040,-4317,1122,7174,-7991,-2062
1131,5,6040,-2447,2051,7786,-8205,-2370
1132,5,6023,-1366,2974,8024,-8239,-2464
1133,5,6209,-767,2881,8021,-8157,-2352
1134,5,6389,-742,2629,7975,-8102,-2268
1135,5,6457,-649,2602,7944,-8062,-2185
1136,5,6239,-133,2561,7843,-7989,-1950
1137,5,5529,1688,2729,7772,-7902,-1088
1138,5,5584,2651,2505,7342,-7815,-216
1139,5,6452,2358,2027,6910,-7665,561
1140,5,7504,1389,1280,6611,-7499,1230
1141,5,8747,-22,587,6416,-7372,1710
1142,5,9989,-1446,239,6327,-7264,1974
1143,5,11122,-2305,-145,6296,-7155,2046
1144,5,11742,-1764,-389,6231,-7050,1943
1145,5,12722,-2332,-1355,6142,-6938,1922
1146,5,13201,-2542,-2229,6126,-6844,1972
1147,5,13496,-2451,-2758,6117,-6775,1975
1148,5,13620,-2652,-2944,6091,-6714,1989
1149,5,13326,-2927,-2841,6077,-6687,1753
1150,5,12729,-2779,-3273,6188,-6744,1567
1151,5,11875,-2111,-3762,6483,-6950,1396
1152,5,10477,-1035,-3429,6983,-7323,1260
1153,5,8191,698,-2241,7583,-7753,1032
1154,5,5397,1615,-907,8124,-8142,718
1155,5,3113,2384,-909,8681,-8434,608
1156,5,1783,2654,-867,8910,-8626,369
1157,5,1247,1685,-1144,8902,-8693,254
1158,5,905,1097,-1756,8922,-8713,302
1159,5,628,522,-2419,8933,-8744,268
1160,5,395,-4,-2873,8949,-8779,232
1161,5,188,-276,-2733,8959,-8795,234
1162,5,-200,188,-2063,8936,-8736,334
1163,5,-620,1254,-1539,8733,-8565,629
1164,5,-1477,2260,-1174,8304,-8314,911
1165,5,-2056,3065,-1038,7711,-8007,1207
1166,5,-1506,3056,-1226,7030,-7647,1511
1167,5,149,1984,-1780,6383,-7274,1715
1168,5,2136,32,-2449,5867,-6961,1771
1169,5,3939,-2048,-2933,5586,-6767,1791
1170,5,5828,-3666,-2889,5494,-6679,1717
1171,5,7472,-4782,-2724,5488,-6616,1536
1172,5,8842,-4955,-2495,5493,-6553,1461
1173,5,9697,-5071,-2374,5471,-6486,1418
1174,5,10315,-5289,-2216,5445,-6422,1348
1175,5,10658,-5498,-2211,5444,-6360,1288
1176,5,10303,-6006,-1838,5485,-6364,1204
1177,5,9760,-6481,-1299,5561,-6476,838
1178,5,9542,-6482,-790,5745,-6678,329
1179,5,9077,-6273,-174,6036,-6982,-294
1180,5,8173,-6161,817,6448,-7343,-984
1181,5,6794,-5137,1488,7051,-7654,-1581
1182,5,5540,-3262,1964,7723,-7920,-1925
1183,5,5542,-2026,2753,8096,-8028,-2080
1184,5,5821,-1267,2700,8156,-7976,-2046
1185,5,5944,-932,2636,8138,-7934,-1976
1186,5,5956,-990,2810,8081,-7895,-1919
1187,5,5950,-1190,2955,7963,-7809,-1895
1188,5,5639,-425,2912,7747,-7666,-1678
1189,5,5068,479,3098,7446,-7483,-1039
1190,5,5112,946,3190,6994,-7280,-236
1191,5,5938,459,2931,6545,-7034,549
1192,5,7081,-747,2176,6218,-6732,1071
1193,5,8267,-1570,1403,6052,-6487,1467
1194,5,9235,-2658,681,5898,-6295,1661
1195,5,10234,-2812,149,5802,-6131,1649
1196,5,11249,-3338,-1335,5697,-5990,1430
1197,5,12049,-3574,-2664,5685,-5923,1478
1198,5,12526,-3422,-3392,5706,-5863,1467
1199,5,12852,-3352,-3748,5708,-5807,1471
1200,5,12475,-3383,-4083,5740,-5763,1511
1201,5,11870,-3407,-4458,5821,-5833,1342
1202,5,11226,-2999,-4362,6067,-6075,1218
1203,5,10243,-1951,-3451,6501,-6424,1098
1204,5,8436,-310,-2362,7083,-6819,938
1205,5,5786,1208,-1497,7677,-7228,802
1206,5,3215,2062,-1101,8163,-7594,570
1207,5,1682,2428,-1089,8477,-7824,510
1208,5,1049,1893,-1573,8535,-7905,514
1209,5,629,1205,-2145,8541,-7941,501
1210,5,295,544,-2850,8528,-7968,426
1211,5,88,190,-3452,8548,-8004,404
1212,5,-104,-202,-3764,8582,-8047,386
1213,5,-203,-423,-3842,8615,-8081,395
1214,5,-410,-670,-3470,8687,-8085,521
1215,5,-753,708,-2751,8694,-8022,863
1216,5,-1854,1965,-2245,8327,-7850,1025
1217,5,-2969,3252,-2271,7772,-7561,1325
1218,5,-2974,3591,-2652,7093,-7221,1648
1219,5,-1417,2646,-3099,6416,-6883,1900
1220,5,756,769,-3194,5867,-6601,2016
1221,5,2850,-1230,-3176,5542,-6391,2084
1222,5,4562,-2845,-3034,5383,-6258,2050
1223,5,6325,-4058,-2635,5311,-6168,1937
1224,5,7965,-4491,-2368,5294,-6078,1832
1225,5,9076,-4750,-2341,5270,-5980,1781
1226,5,9763,-4945,-2343,5256,-5918,1724
1227,5,10222,-5197,-2168,5261,-5875,1658
1228,5,10017,-5629,-1532,5313,-5882,1590
1229,5,9559,-5994,-892,5389,-5982,1218
1230,5,9361,-6006,-596,5565,-6146,677
1231,5,9037,-5542,-59,5861,-6408,117
1232,5,8741,-5481,938,6183,-6718,-519
1233,5,7257,-5068,1247,6634,-7031,-1120
1234,5,6032,-4072,1347,7209,-7319,-1549
1235,5,5554,-2457,2356,7706,-7544,-1781
1236,5,5662,-1619,2705,7822,-7534,-1663
1237,5,5824,-1349,2516,7774,-7474,-1599
1238,5,5848,-1483,2496,7689,-7423,-1537
1239,5,5811,-1509,2454,7570,-7335,-1444
1240,5,5678,-692,2576,7470,-7196,-1001
1241,5,5266,1250,2635,7274,-7058,-204
1242,5,5174,1823,2113,6866,-6919,612
1243,5,6051,1037,1500,6446,-6758,1281
1244,5,7220,-67,914,6174,-6569,1787
1245,5,8733,-1289,355,6019,-6386,2126
1246,5,10026,-2190,-281,5953,-6240,2352
1247,5,10934,-2975,-824,5882,-6140,2412
1248,5,11393,-3516,-1558,5813,-6056,2354
1249,5,12246,-3537,-2495,5769,-5960,2298
1250,5,12690,-3468,-3198,5743,-5877,2282
1251,5,12944,-3354,-3580,5725,-5811,2251
1252,5,13139,-3371,-3785,5708,-5741,2241
1253,5,13076,-3555,-3700,5707,-5700,2174
1254,5,12342,-3831,-3585,5736,-5739,1919
1255,5,11425,-3299,-4027,5959,-5910,1719
1256,5,10264,-2212,-4131,6372,-6246,1564
1257,5,8268,-234,-3261,6963,-6704,1427
1258,5,5571,1360,-2158,7577,-7159,1278
1259,5,2809,2313,-1570,8117,-7544,1110
1260,5,1246,2275,-1359,8410,-7814,873
1261,5,732,1350,-1625,8460,-7929,663
1262,5,347,699,-2176,8507,-7968,692
1263,5,80,152,-2861,8505,-7984,654
1264,5,-104,-371,-3556,8497,-8005,620
1265,5,-258,-812,-4015,8507,-8038,604
1266,5,-332,-1186,-4257,8525,-8075,579
1267,5,-394,-1270,-4407,8557,-8114,557
1268,5,-443,-1274,-4507,8590,-8155,545
1269,5,-425,-1337,-4554,8617,-8195,541
1270,5,-450,-1422,-4556,8643,-8230,527
1271,5,-465,-1437,-4604,8668,-8264,508
1272,5,-444,-1449,-4646,8688,-8300,493
1273,5,-435,-1481,-4625,8715,-8335,480
1274,5,-414,-1468,-4590,8742,-8370,464
1275,5,-408,-1444,-4583,8764,-8404,441
1276,5,-403,-1456,-4585,8786,-8439,420
1277,5,-386,-1457,-4589,8810,-8475,403
1278,5,-370,-1433,-4577,8838,-8510,388
1279,5,-350,-1426,-4565,8867,-8548,366
1280,5,-337,-1424,-4552,8894,-8585,347
1281,5,-309,-1400,-4523,8925,-8623,326
1282,5,-297,-1388,-4481,8952,-8660,306
1283,5,-287,-1374,-4457,8978,-8695,285
1284,5,-271,-1374,-4463,9005,-8731,258
1285,5,-248,-1389,-4456,9031,-8767,237
1286,5,-234,-1375,-4432,9058,-8803,217
1287,5,-219,-1360,-4413,9085,-8838,198
1288,5,-195,-1338,-4392,9111,-8873,176
1289,6,7355,-3371,-2402,6383,-8212,1148
1290,6,9147,-3742,-2216,6393,-8149,1115
1291,6,10315,-3976,-2056,6390,-8080,1042
1292,6,11209,-4334,-1909,6392,-8029,995
1293,6,11350,-4855,-1075,6458,-8022,995
1294,6,11133,-5318,-412,6448,-8063,549
1295,6,10850,-5351,-272,6545,-8199,-83
1296,6,10418,-5055,317,6820,-8454,-756
1297,6,9742,-4546,1575,7221,-8718,-1456
1298,6,8993,-4088,2626,7687,-8901,-2154
1299,6,7732,-2898,3019,8284,-9047,-2723
1300,6,7186,-1517,3476,8770,-9153,-3104
1301,6,7170,-645,3779,8910,-9123,-3160
1302,6,7121,-317,3579,8869,-9055,-3071
1303,6,7171,-36,3366,8806,-9008,-2869
1304,6,6773,624,3406,8736,-8945,-2296
1305,6,6512,2183,3566,8493,-8877,-1423
1306,6,6633,2717,3439,8066,-8758,-645
1307,6,7090,2283,2735,7664,-8596,152
1308,6,8174,1139,1937,7347,-8428,850
1309,6,9449,-353,1236,7153,-8270,1331
1310,6,10766,-1587,780,7072,-8143,1632
1311,6,12137,-2024,315,7053,-8028,1757
1312,6,12592,-2195,-439,6958,-7894,1548
1313,6,13201,-2507,-1499,6882,-7803,1524
1314,6,13774,-2455,-2238,6857,-7723,1495
1315,6,14163,-2327,-2648,6839,-7647,1471
1316,6,14378,-2383,-3011,6818,-7583,1465
1317,6,13761,-2753,-3120,6848,-7585,1428
1318,6,12932,-2522,-3481,7009,-7732,1204
1319,6,11984,-1812,-3337,7384,-8039,992
1320,6,10361,-607,-2233,7971,-8457,727
1321,6,7673,1105,-968,8612,-8868,380
1322,6,4567,2211,27,9248,-9249,81
1323,6,2912,2585,11,9634,-9495,-184
1324,6,2050,2171,-235,9776,-9621,-327
1325,6,1528,1611,-754,9831,-9676,-288
1326,6,1202,817,-1342,9841,-9705,-272
1327,6,921,173,-2000,9851,-9723,-328
1328,6,774,-165,-2593,9860,-9746,-389
1329,6,657,-296,-2851,9907,-9777,-374
1330,6,398,-422,-2181,9923,-9788,-364
1331,6,-159,192,-1011,9807,-9675,-287
1332,6,-1061,1292,-291,9439,-9397,11
1333,6,-2142,2508,-222,8854,-9034,433
1334,6,-2312,2915,-516,8138,-8649,879
1335,6,-907,1972,-1269,7423,-8268,1216
1336,6,1379,185,-1902,6874,-7942,1395
1337,6,3773,-1678,-2187,6597,-7714,1551
1338,6,5680,-2937,-2175,6480,-7585,1575
1339,6,7360,-3685,-1712,6405,-7507,1420
1340,6,8920,-4081,-1535,6370,-7424,1297
1341,6,10063,-4168,-1505,6362,-7342,1257
1342,6,10755,-4249,-1457,6333,-7259,1202
1343,6,11294,-4473,-1416,6305,-7182,1149
1344,6,11647,-4634,-1405,6316,-7115,1129
1345,6,12042,-4207,-1373,6354,-7055,1094
1346,6,12184,-3826,-1039,6323,-6971,1001
1347,6,12240,-4067,-951,6259,-6852,939
1348,6,12385,-4093,-1014,6254,-6705,905
1349,6,12051,-3898,-1261,6254,-6540,749
1350,6,11229,-3999,-2148,6317,-6457,525
1351,6,10479,-3222,-3530,6671,-6595,328
1352,6,9904,-1417,-1652,7295,-6926,29
1353,6,8563,151,1520,7682,-7030,-481
1354,6,6953,424,3463,7889,-6810,-1071
1355,6,5527,1436,2768,8123,-6577,-1466
1356,6,5156,2242,1552,8339,-6486,-1705
1357,6,5376,2370,1145,8489,-6427,-1867
1358,6,6021,2183,1029,8583,-6377,-1911
1359,6,6204,2049,1107,8613,-6337,-1879
1360,6,6319,1865,1233,8561,-6279,-1780
1361,6,6453,1994,1375,8473,-6200,-1567
1362,6,6741,2368,1729,8327,-6100,-1210
1363,6,6877,3298,1467,8107,-5972,-609
1364,6,7209,3453,927,7793,-5859,62
1365,6,7673,2941,231,7470,-5734,674
1366,6,8502,1681,-521,7209,-5600,1119
1367,6,9437,243,-911,7074,-5496,1416
1368,6,10547,-1170,-899,6990,-5387,1507
1369,6,11255,-1548,-1357,6934,-5267,1433
1370,6,11776,-1792,-2603,6886,-5161,1402
1371,6,12303,-1985,-3489,6867,-5085,1379
1372,6,12519,-2092,-3841,6856,-5026,1380
1373,6,12345,-2248,-3900,6852,-4970,1438
1374,6,11884,-2607,-4092,6881,-4960,1212
1375,6,11138,-2520,-4516,7045,-5096,1045
1376,6,10184,-1916,-4476,7397,-5399,893
1377,6,8358,-382,-3634,7948,-5824,756
1378,6,5554,1306,-2548,8536,-6268,617
1379,6,2574,2321,-1831,9074,-6656,490
1380,6,985,2728,-1648,9426,-6918,437
1381,6,309,2427,-1968,9493,-7027,379
1382,6,51,1611,-2458,9477,-7072,314
1383,6,-250,827,-3188,9488,-7104,274
1384,6,-507,143,-3860,9507,-7147,226
1385,6,-662,-208,-4211,9543,-7193,232
1386,6,-754,-395,-4336,9582,-7238,239
1387,6,-876,-502,-4118,9607,-7263,295
1388,6,-1120,-62,-3132,9581,-7224,405
1389,6,-1834,1327,-2110,9400,-7058,614
1390,6,-3361,2616,-1772,8978,-6797,836
1391,6,-4373,3594,-2172,8349,-6470,1146
1392,6,-3782,2907,-2894,7650,-6113,1383
1393,6,-1597,1131,-3703,7082,-5774,1484
1394,6,992,-1078,-4207,6721,-5531,1561
1395,6,3349,-3057,-3967,6544,-5399,1590
1396,6,4915,-4041,-3410,6521,-5329,1475
1397,6,6723,-4386,-3021,6524,-5264,1411
1398,6,8043,-4552,-2831,6501,-5175,1398
1399,6,8800,-4718,-2689,6481,-5087,1342
1400,6,9433,-4828,-2597,6475,-5015,1292
1401,6,9879,-4881,-2513,6478,-4951,1267
1402,6,9859,-5012,-2121,6500,-4907,1242
1403,6,9578,-5684,-1901,6538,-4924,827
1404,6,9244,-5922,-1708,6682,-5050,426
1405,6,8808,-6006,-1433,6916,-5288,-93
1406,6,8043,-5784,-780,7286,-5623,-565
1407,6,6845,-5254,288,7788,-5967,-1050
1408,6,5244,-3881,1037,8403,-6251,-1353
1409,6,4471,-2094,1488,8882,-6442,-1516
1410,6,4489,-1006,1940,9061,-6481,-1568
1411,6,4579,-419,1913,9069,-6441,-1507
1412,6,4621,-272,1942,9015,-6404,-1456
1413,6,4409,-176,2297,8879,-6321,-1349
1414,6,3995,193,2624,8605,-6127,-960
1415,6,3942,1129,2188,8264,-5902,-298
1416,6,5724,595,1128,7470,-5529,817
1417,6,6988,-223,350,7207,-5336,1242
1418,6,7991,-1248,-340,7042,-5183,1578
1419,6,8884,-2171,-949,6967,-5064,1769
1420,6,10075,-2518,-1423,6959,-4970,1883
1421,6,10777,-3128,-2065,6906,-4855,1883
1422,6,11530,-3249,-2885,6830,-4743,1763
1423,6,11847,-3045,-3603,6813,-4648,1762
1424,6,12043,-2710,-4007,6807,-4572,1774
1425,6,11942,-2869,-4211,6787,-4509,1798
1426,6,11605,-3061,-4517,6861,-4516,1594
1427,6,10841,-2936,-4531,7053,-4660,1451
1428,6,9589,-2096,-4247,7410,-4958,1238
1429,6,7420,-686,-3596,7915,-5392,1049
1430,6,4876,1154,-2387,8427,-5847,932
1431,6,2494,2140,-1602,8846,-6250,854
1432,6,981,2461,-1454,9086,-6546,711
1433,6,238,1703,-1726,9125,-6685,607
1434,6,-103,762,-2167,9145,-6732,594
1435,6,-444,279,-2975,9178,-6767,588
1436,6,-666,-104,-3731,9197,-6808,523
1437,6,-808,-350,-4212,9229,-6844,546
1438,6,-1012,-741,-3749,9247,-6871,545
1439,6,-1493,-777,-2576,9258,-6809,553
1440,6,-2478,481,-1791,9105,-6573,750
1441,6,-4397,2547,-1837,8138,-5830,1226
1442,6,-3076,1783,-2695,7504,-5419,1398
1443,6,-922,14,-3436,7026,-5073,1454
1444,6,1340,-1653,-3708,6769,-4861,1638
1445,6,3618,-3171,-3366,6618,-4723,1673
1446,6,5236,-3792,-3143,6558,-4599,1525
1447,6,6956,-4248,-3178,6561,-4521,1509
1448,6,8202,-4332,-3012,6574,-4451,1473
1449,6,8911,-4334,-2837,6569,-4382,1420
1450,6,9489,-4484,-2692,6558,-4314,1374
1451,6,9079,-4677,-2161,6563,-4266,1393
1452,6,8852,-5206,-1816,6641,-4274,1014
1453,6,8743,-5392,-1545,6810,-4347,616
1454,6,8499,-5308,-1136,7070,-4543,97
1455,6,7977,-4916,-12,7447,-4801,-448
1456,6,6986,-3620,729,7932,-5049,-882
1457,6,5959,-2439,869,8429,-5266,-1193
1458,6,4824,-1092,1522,8919,-5495,-1391
1459,6,4864,75,1829,9069,-5521,-1336
1460,6,4863,218,1677,9009,-5451,-1332
1461,6,4845,60,1469,8970,-5404,-1337
1462,6,4831,22,1349,8901,-5356,-1317
1463,6,4623,134,1471,8752,-5265,-1180
1464,6,4467,1294,1224,8610,-5190,-659
1465,6,3826,2871,1029,8318,-5193,28
1466,6,3615,3264,1051,7874,-5175,679
1467,6,4592,2186,755,7410,-5031,1144
1468,6,6185,943,-196,7121,-4823,1542
1469,6,7676,-422,-867,6951,-4650,1782
1470,6,8881,-1481,-1608,6860,-4541,1951
1471,6,9862,-2028,-2282,6808,-4463,1963
1472,6,10750,-2500,-2964,6766,-4384,1870
1473,6,11395,-2713,-3740,6721,-4272,1884
1474,6,11774,-2741,-4338,6692,-4185,1910
1475,6,12048,-2699,-4539,6673,-4118,1921
1476,6,11726,-2922,-4334,6648,-4054,1954
1477,6,11027,-3253,-4917,6733,-4107,1603
1478,6,9962,-3001,-5087,6999,-4355,1496
1479,6,8568,-2065,-4758,7465,-4774,1367
1480,6,6006,92,-4018,8066,-5259,1339
1481,6,3097,1552,-2957,8589,-5700,1192
1482,6,833,2212,-2433,9016,-6048,1123
1483,6,-120,2127,-2398,9214,-6249,1066
1484,6,-546,1370,-2674,9239,-6328,1094
1485,6,-738,668,-3186,9259,-6368,1084
1486,6,-990,96,-3698,9275,-6407,1015
1487,6,-1335,-12,-3087,9250,-6413,967
1488,6,-2057,298,-2342,9138,-6284,981
1489,6,-2990,1418,-1880,8877,-6019,1168
1490,6,-4162,2865,-1986,8429,-5679,1414
1491,6,-3847,3103,-2475,7828,-5324,1658
1492,6,-2414,2010,-2929,7231,-4963,1708
1493,6,-422,-14,-3809,6810,-4643,1689
1494,6,1834,-2161,-4165,6572,-4440,1675
1495,6,3684,-2906,-3976,6501,-4310,1542
1496,6,5682,-3905,-3900,6490,-4227,1454
1497,6,7255,-4393,-3936,6501,-4170,1418
1498,6,8295,-4466,-3712,6516,-4116,1384
1499,6,8973,-4711,-3430,6509,-4053,1336
1500,6,9383,-5309,-3172,6505,-4010,1313
1501,6,8898,-5960,-2666,6546,-4059,1018
1502,6,8511,-6127,-2304,6704,-4209,679
1503,6,8169,-5858,-1832,6980,-4447,263
1504,6,7719,-5589,-641,7322,-4748,-225
1505,6,7044,-5116,316,7731,-5039,-708
1506,6,5817,-4158,586,8229,-5313,-1038
1507,6,5043,-2476,628,8706,-5548,-1118
1508,6,5009,-1343,1078,8905,-5646,-1138
1509,6,4806,-1025,1660,8925,-5650,-1104
1510,6,4600,-976,1998,8873,-5608,-1056
1511,6,4513,-692,1944,8754,-5509,-970
1512,6,4117,122,1855,8511,-5346,-589
1513,6,4103,1134,2128,8184,-5166,-87
1514,6,4160,1381,2069,7751,-4968,479
1515,6,5100,420,1453,7318,-4726,905
1516,6,6010,-871,470,7022,-4471,1279
1517,6,6783,-1717,-633,6876,-4274,1682
1518,6,8212,-2215,-1488,6800,-4152,1976
1519,6,9659,-3053,-1891,6709,-4021,1990
1520,6,9888,-3981,-2335,6654,-3930,1912
1521,6,10801,-3868,-3103,6647,-3846,1849
1522,6,11297,-3473,-3994,6635,-3727,1888
1523,6,11496,-3402,-4400,6615,-3652,1837
1524,6,11497,-3414,-4575,6614,-3589,1840
1525,6,10807,-3329,-4766,6682,-3562,1704
1526,6,10061,-3214,-5178,6858,-3709,1584
1527,6,9033,-2451,-4880,7218,-4052,1459
1528,6,7178,-739,-3812,7719,-4497,1422
1529,6,4589,1081,-2998,8255,-4947,1384
1530,6,2109,1916,-2666,8733,-5357,1245
1531,6,188,2404,-2430,9050,-5686,1086
1532,6,-531,1614,-2575,9066,-5811,953
1533,6,-754,616,-3192,9037,-5829,980
1534,6,-1039,41,-3754,9050,-5869,875
1535,6,-1503,-384,-3788,9051,-5894,728
1536,6,-2191,-618,-2802,9006,-5789,767
1537,6,-3153,496,-1822,8821,-5510,970
1538,6,-3905,1681,-1617,8461,-5123,1103
1539,6,-3966,2448,-1811,8018,-4726,1221
1540,6,-2790,1938,-2682,7496,-4327,1342
1541,6,-1003,257,-3485,7048,-4002,1363
1542,6,1190,-2129,-4065,6773,-3777,1255
1543,6,3000,-3650,-4032,6692,-3659,1244
1544,6,4696,-4097,-3739,6709,-3582,1144
1545,6,6366,-4467,-3642,6709,-3505,1138
1546,6,7387,-4707,-3475,6715,-3434,1094
1547,6,7949,-5088,-3335,6724,-3390,1064
1548,6,7585,-5342,-2757,6800,-3423,934
1549,6,7449,-5819,-2172,6938,-3531,597
1550,6,7253,-5901,-1607,7163,-3703,188
1551,6,6869,-5618,-1063,7487,-3944,-238
1552,6,6343,-5066,-390,7893,-4212,-657
1553,6,5524,-4249,504,8371,-4481,-1006
1554,6,4493,-3185,854,8858,-4704,-1148
1555,6,4159,-1949,1101,9208,-4830,-1272
1556,6,4152,-884,1223,9354,-4859,-1305
1557,6,4167,-281,1201,9354,-4839,-1240
1558,6,4032,28,1425,9267,-4802,-1096
1559,6,3743,323,1265,9097,-4693,-672
1560,6,3593,2231,438,8811,-4691,154
1561,6,3855,3043,-104,8380,-4720,666
1562,6,4707,2729,-347,7946,-4666,1091
1563,6,5943,1694,-591,7584,-4518,1454
1564,6,7109,357,-995,7329,-4342,1743
1565,6,8134,-1033,-1461,7181,-4213,1903
1566,6,9131,-2113,-1784,7122,-4126,1970
1567,6,9812,-1704,-1830,7118,-4041,1925
1568,6,10768,-2216,-2624,7090,-3924,1928
1569,6,11135,-2255,-3373,7074,-3816,1942
1570,6,10977,-2471,-3669,7039,-3735,1976
1571,6,10602,-2914,-3989,7091,-3730,1753
1572,6,10093,-2950,-4514,7280,-3859,1592
1573,6,9032,-2172,-4527,7639,-4158,1480
1574,6,7248,-627,-4020,8146,-4560,1398
1575,6,4725,1009,-3390,8695,-4979,1349
1576,6,2014,2112,-3039,9190,-5400,1281
1577,6,130,2383,-2750,9522,-5728,1147
1578,6,-534,1773,-2691,9655,-5863,1192
1579,6,-814,1032,-3349,9669,-5908,1197
1580,6,-1202,158,-4249,9679,-5945,1106
1581,6,-1395,-635,-5095,9713,-5994,1014
1582,6,-1387,-1283,-5571,9803,-6080,973
1583,6,-1510,-1755,-5827,9930,-6178,913
1584,6,-1422,-2044,-5887,10076,-6301,896
1585,6,-1399,-2321,-5837,10193,-6405,829
1586,6,-1290,-2829,-6089,10260,-6472,666
1587,6,-1216,-3253,-6275,10314,-6535,626
1588,6,-1137,-3561,-6434,10363,-6592,532
1589,6,-1084,-3734,-6686,10388,-6627,444
1590,6,-965,-3896,-6923,10410,-6663,351
